Created as New Dataset,Sample 005 By whitece Date Monday, December 16 2024
cm-1,%T
4000.00,99.50
3999.00,99.51
3998.00,99.50
3997.00,99.49
3996.00,99.47
3995.00,99.45
3994.00,99.44
3993.00,99.42
3992.00,99.40
3991.00,99.39
3990.00,99.37
3989.00,99.36
3988.00,99.34
3987.00,99.32
3986.00,99.31
3985.00,99.30
3984.00,99.30
3983.00,99.30
3982.00,99.31
3981.00,99.32
3980.00,99.33
3979.00,99.34
3978.00,99.35
3977.00,99.36
3976.00,99.36
3975.00,99.37
3974.00,99.37
3973.00,99.37
3972.00,99.37
3971.00,99.38
3970.00,99.38
3969.00,99.39
3968.00,99.40
3967.00,99.40
3966.00,99.40
3965.00,99.40
3964.00,99.39
3963.00,99.38
3962.00,99.37
3961.00,99.36
3960.00,99.36
3959.00,99.37
3958.00,99.38
3957.00,99.40
3956.00,99.43
3955.00,99.45
3954.00,99.47
3953.00,99.48
3952.00,99.48
3951.00,99.47
3950.00,99.46
3949.00,99.44
3948.00,99.41
3947.00,99.39
3946.00,99.38
3945.00,99.37
3944.00,99.37
3943.00,99.37
3942.00,99.38
3941.00,99.39
3940.00,99.40
3939.00,99.40
3938.00,99.40
3937.00,99.39
3936.00,99.38
3935.00,99.37
3934.00,99.36
3933.00,99.36
3932.00,99.35
3931.00,99.36
3930.00,99.36
3929.00,99.37
3928.00,99.38
3927.00,99.38
3926.00,99.38
3925.00,99.37
3924.00,99.36
3923.00,99.35
3922.00,99.33
3921.00,99.32
3920.00,99.31
3919.00,99.30
3918.00,99.30
3917.00,99.30
3916.00,99.31
3915.00,99.32
3914.00,99.33
3913.00,99.35
3912.00,99.37
3911.00,99.38
3910.00,99.39
3909.00,99.40
3908.00,99.41
3907.00,99.42
3906.00,99.44
3905.00,99.46
3904.00,99.48
3903.00,99.49
3902.00,99.51
3901.00,99.51
3900.00,99.51
3899.00,99.50
3898.00,99.48
3897.00,99.46
3896.00,99.44
3895.00,99.41
3894.00,99.39
3893.00,99.38
3892.00,99.37
3891.00,99.36
3890.00,99.35
3889.00,99.35
3888.00,99.34
3887.00,99.33
3886.00,99.33
3885.00,99.33
3884.00,99.33
3883.00,99.34
3882.00,99.36
3881.00,99.37
3880.00,99.38
3879.00,99.40
3878.00,99.41
3877.00,99.42
3876.00,99.42
3875.00,99.43
3874.00,99.44
3873.00,99.44
3872.00,99.44
3871.00,99.43
3870.00,99.42
3869.00,99.41
3868.00,99.40
3867.00,99.40
3866.00,99.41
3865.00,99.42
3864.00,99.44
3863.00,99.46
3862.00,99.47
3861.00,99.46
3860.00,99.45
3859.00,99.43
3858.00,99.40
3857.00,99.38
3856.00,99.37
3855.00,99.36
3854.00,99.35
3853.00,99.35
3852.00,99.34
3851.00,99.34
3850.00,99.35
3849.00,99.35
3848.00,99.36
3847.00,99.36
3846.00,99.38
3845.00,99.39
3844.00,99.40
3843.00,99.40
3842.00,99.41
3841.00,99.42
3840.00,99.42
3839.00,99.43
3838.00,99.44
3837.00,99.44
3836.00,99.44
3835.00,99.45
3834.00,99.45
3833.00,99.44
3832.00,99.44
3831.00,99.42
3830.00,99.41
3829.00,99.39
3828.00,99.37
3827.00,99.35
3826.00,99.33
3825.00,99.31
3824.00,99.29
3823.00,99.28
3822.00,99.28
3821.00,99.28
3820.00,99.29
3819.00,99.31
3818.00,99.33
3817.00,99.37
3816.00,99.40
3815.00,99.43
3814.00,99.45
3813.00,99.46
3812.00,99.45
3811.00,99.44
3810.00,99.43
3809.00,99.41
3808.00,99.39
3807.00,99.38
3806.00,99.38
3805.00,99.38
3804.00,99.39
3803.00,99.41
3802.00,99.42
3801.00,99.44
3800.00,99.46
3799.00,99.48
3798.00,99.49
3797.00,99.49
3796.00,99.48
3795.00,99.46
3794.00,99.44
3793.00,99.41
3792.00,99.39
3791.00,99.38
3790.00,99.38
3789.00,99.39
3788.00,99.40
3787.00,99.41
3786.00,99.42
3785.00,99.42
3784.00,99.40
3783.00,99.38
3782.00,99.36
3781.00,99.35
3780.00,99.34
3779.00,99.34
3778.00,99.34
3777.00,99.35
3776.00,99.36
3775.00,99.36
3774.00,99.37
3773.00,99.37
3772.00,99.36
3771.00,99.36
3770.00,99.36
3769.00,99.36
3768.00,99.35
3767.00,99.35
3766.00,99.34
3765.00,99.33
3764.00,99.32
3763.00,99.31
3762.00,99.30
3761.00,99.29
3760.00,99.29
3759.00,99.29
3758.00,99.29
3757.00,99.29
3756.00,99.28
3755.00,99.27
3754.00,99.26
3753.00,99.25
3752.00,99.24
3751.00,99.24
3750.00,99.23
3749.00,99.24
3748.00,99.24
3747.00,99.25
3746.00,99.26
3745.00,99.27
3744.00,99.28
3743.00,99.28
3742.00,99.28
3741.00,99.29
3740.00,99.29
3739.00,99.30
3738.00,99.31
3737.00,99.33
3736.00,99.34
3735.00,99.35
3734.00,99.36
3733.00,99.35
3732.00,99.35
3731.00,99.34
3730.00,99.33
3729.00,99.32
3728.00,99.33
3727.00,99.34
3726.00,99.35
3725.00,99.37
3724.00,99.39
3723.00,99.41
3722.00,99.42
3721.00,99.43
3720.00,99.43
3719.00,99.43
3718.00,99.42
3717.00,99.40
3716.00,99.37
3715.00,99.35
3714.00,99.32
3713.00,99.30
3712.00,99.27
3711.00,99.25
3710.00,99.22
3709.00,99.19
3708.00,99.17
3707.00,99.15
3706.00,99.13
3705.00,99.12
3704.00,99.12
3703.00,99.12
3702.00,99.12
3701.00,99.12
3700.00,99.12
3699.00,99.12
3698.00,99.11
3697.00,99.11
3696.00,99.09
3695.00,99.08
3694.00,99.08
3693.00,99.08
3692.00,99.09
3691.00,99.11
3690.00,99.14
3689.00,99.16
3688.00,99.19
3687.00,99.21
3686.00,99.22
3685.00,99.22
3684.00,99.21
3683.00,99.20
3682.00,99.19
3681.00,99.18
3680.00,99.17
3679.00,99.15
3678.00,99.14
3677.00,99.12
3676.00,99.10
3675.00,99.09
3674.00,99.07
3673.00,99.05
3672.00,99.03
3671.00,99.00
3670.00,98.97
3669.00,98.94
3668.00,98.91
3667.00,98.88
3666.00,98.86
3665.00,98.85
3664.00,98.83
3663.00,98.81
3662.00,98.79
3661.00,98.74
3660.00,98.67
3659.00,98.54
3658.00,98.34
3657.00,98.03
3656.00,97.58
3655.00,96.99
3654.00,96.28
3653.00,95.51
3652.00,94.75
3651.00,94.09
3650.00,93.63
3649.00,93.43
3648.00,93.51
3647.00,93.84
3646.00,94.37
3645.00,95.00
3644.00,95.67
3643.00,96.28
3642.00,96.80
3641.00,97.21
3640.00,97.52
3639.00,97.75
3638.00,97.92
3637.00,98.06
3636.00,98.16
3635.00,98.25
3634.00,98.32
3633.00,98.37
3632.00,98.42
3631.00,98.46
3630.00,98.49
3629.00,98.51
3628.00,98.53
3627.00,98.55
3626.00,98.55
3625.00,98.56
3624.00,98.56
3623.00,98.56
3622.00,98.56
3621.00,98.56
3620.00,98.56
3619.00,98.55
3618.00,98.54
3617.00,98.53
3616.00,98.51
3615.00,98.50
3614.00,98.48
3613.00,98.47
3612.00,98.45
3611.00,98.43
3610.00,98.41
3609.00,98.39
3608.00,98.37
3607.00,98.34
3606.00,98.32
3605.00,98.29
3604.00,98.25
3603.00,98.21
3602.00,98.17
3601.00,98.14
3600.00,98.11
3599.00,98.10
3598.00,98.09
3597.00,98.10
3596.00,98.10
3595.00,98.10
3594.00,98.10
3593.00,98.09
3592.00,98.08
3591.00,98.07
3590.00,98.06
3589.00,98.05
3588.00,98.04
3587.00,98.03
3586.00,98.01
3585.00,97.99
3584.00,97.97
3583.00,97.95
3582.00,97.92
3581.00,97.90
3580.00,97.89
3579.00,97.88
3578.00,97.86
3577.00,97.85
3576.00,97.85
3575.00,97.83
3574.00,97.82
3573.00,97.80
3572.00,97.78
3571.00,97.75
3570.00,97.71
3569.00,97.67
3568.00,97.62
3567.00,97.57
3566.00,97.52
3565.00,97.47
3564.00,97.42
3563.00,97.37
3562.00,97.32
3561.00,97.28
3560.00,97.23
3559.00,97.19
3558.00,97.15
3557.00,97.10
3556.00,97.05
3555.00,97.00
3554.00,96.95
3553.00,96.89
3552.00,96.83
3551.00,96.77
3550.00,96.70
3549.00,96.63
3548.00,96.56
3547.00,96.49
3546.00,96.40
3545.00,96.31
3544.00,96.21
3543.00,96.09
3542.00,95.97
3541.00,95.83
3540.00,95.67
3539.00,95.50
3538.00,95.32
3537.00,95.12
3536.00,94.92
3535.00,94.71
3534.00,94.49
3533.00,94.28
3532.00,94.06
3531.00,93.83
3530.00,93.59
3529.00,93.34
3528.00,93.07
3527.00,92.78
3526.00,92.48
3525.00,92.16
3524.00,91.84
3523.00,91.51
3522.00,91.19
3521.00,90.87
3520.00,90.58
3519.00,90.30
3518.00,90.06
3517.00,89.86
3516.00,89.69
3515.00,89.56
3514.00,89.46
3513.00,89.40
3512.00,89.38
3511.00,89.39
3510.00,89.43
3509.00,89.49
3508.00,89.58
3507.00,89.69
3506.00,89.81
3505.00,89.94
3504.00,90.07
3503.00,90.20
3502.00,90.33
3501.00,90.46
3500.00,90.58
3499.00,90.69
3498.00,90.78
3497.00,90.87
3496.00,90.94
3495.00,91.01
3494.00,91.06
3493.00,91.12
3492.00,91.16
3491.00,91.19
3490.00,91.21
3489.00,91.22
3488.00,91.20
3487.00,91.17
3486.00,91.12
3485.00,91.06
3484.00,90.99
3483.00,90.92
3482.00,90.84
3481.00,90.75
3480.00,90.66
3479.00,90.56
3478.00,90.45
3477.00,90.32
3476.00,90.18
3475.00,90.03
3474.00,89.88
3473.00,89.71
3472.00,89.55
3471.00,89.38
3470.00,89.20
3469.00,89.01
3468.00,88.82
3467.00,88.62
3466.00,88.41
3465.00,88.19
3464.00,87.96
3463.00,87.73
3462.00,87.50
3461.00,87.27
3460.00,87.04
3459.00,86.80
3458.00,86.57
3457.00,86.35
3456.00,86.13
3455.00,85.93
3454.00,85.74
3453.00,85.57
3452.00,85.43
3451.00,85.30
3450.00,85.20
3449.00,85.13
3448.00,85.08
3447.00,85.06
3446.00,85.06
3445.00,85.08
3444.00,85.11
3443.00,85.16
3442.00,85.21
3441.00,85.28
3440.00,85.35
3439.00,85.43
3438.00,85.52
3437.00,85.62
3436.00,85.73
3435.00,85.86
3434.00,85.99
3433.00,86.13
3432.00,86.28
3431.00,86.44
3430.00,86.60
3429.00,86.76
3428.00,86.92
3427.00,87.08
3426.00,87.24
3425.00,87.39
3424.00,87.53
3423.00,87.67
3422.00,87.81
3421.00,87.95
3420.00,88.08
3419.00,88.20
3418.00,88.33
3417.00,88.45
3416.00,88.56
3415.00,88.68
3414.00,88.80
3413.00,88.91
3412.00,89.03
3411.00,89.15
3410.00,89.26
3409.00,89.37
3408.00,89.46
3407.00,89.54
3406.00,89.61
3405.00,89.68
3404.00,89.74
3403.00,89.80
3402.00,89.87
3401.00,89.93
3400.00,90.01
3399.00,90.08
3398.00,90.15
3397.00,90.23
3396.00,90.30
3395.00,90.36
3394.00,90.43
3393.00,90.49
3392.00,90.55
3391.00,90.62
3390.00,90.69
3389.00,90.77
3388.00,90.85
3387.00,90.93
3386.00,91.01
3385.00,91.08
3384.00,91.14
3383.00,91.18
3382.00,91.22
3381.00,91.25
3380.00,91.28
3379.00,91.32
3378.00,91.36
3377.00,91.41
3376.00,91.46
3375.00,91.52
3374.00,91.57
3373.00,91.63
3372.00,91.68
3371.00,91.72
3370.00,91.77
3369.00,91.81
3368.00,91.86
3367.00,91.91
3366.00,91.96
3365.00,92.01
3364.00,92.06
3363.00,92.12
3362.00,92.17
3361.00,92.21
3360.00,92.25
3359.00,92.28
3358.00,92.29
3357.00,92.30
3356.00,92.30
3355.00,92.31
3354.00,92.31
3353.00,92.33
3352.00,92.35
3351.00,92.38
3350.00,92.42
3349.00,92.47
3348.00,92.51
3347.00,92.55
3346.00,92.58
3345.00,92.61
3344.00,92.64
3343.00,92.66
3342.00,92.67
3341.00,92.69
3340.00,92.71
3339.00,92.72
3338.00,92.73
3337.00,92.74
3336.00,92.74
3335.00,92.75
3334.00,92.76
3333.00,92.77
3332.00,92.79
3331.00,92.81
3330.00,92.83
3329.00,92.86
3328.00,92.88
3327.00,92.90
3326.00,92.92
3325.00,92.94
3324.00,92.96
3323.00,92.98
3322.00,92.99
3321.00,93.01
3320.00,93.03
3319.00,93.04
3318.00,93.05
3317.00,93.05
3316.00,93.05
3315.00,93.05
3314.00,93.05
3313.00,93.04
3312.00,93.04
3311.00,93.03
3310.00,93.03
3309.00,93.02
3308.00,93.01
3307.00,93.01
3306.00,93.01
3305.00,93.02
3304.00,93.03
3303.00,93.04
3302.00,93.06
3301.00,93.07
3300.00,93.08
3299.00,93.08
3298.00,93.08
3297.00,93.08
3296.00,93.07
3295.00,93.06
3294.00,93.06
3293.00,93.06
3292.00,93.06
3291.00,93.06
3290.00,93.07
3289.00,93.07
3288.00,93.08
3287.00,93.08
3286.00,93.08
3285.00,93.07
3284.00,93.06
3283.00,93.04
3282.00,93.02
3281.00,93.00
3280.00,92.99
3279.00,92.97
3278.00,92.96
3277.00,92.96
3276.00,92.95
3275.00,92.94
3274.00,92.94
3273.00,92.94
3272.00,92.94
3271.00,92.95
3270.00,92.96
3269.00,92.96
3268.00,92.97
3267.00,92.97
3266.00,92.95
3265.00,92.93
3264.00,92.91
3263.00,92.88
3262.00,92.85
3261.00,92.83
3260.00,92.82
3259.00,92.82
3258.00,92.83
3257.00,92.84
3256.00,92.87
3255.00,92.89
3254.00,92.90
3253.00,92.90
3252.00,92.89
3251.00,92.88
3250.00,92.85
3249.00,92.83
3248.00,92.80
3247.00,92.78
3246.00,92.77
3245.00,92.75
3244.00,92.73
3243.00,92.71
3242.00,92.70
3241.00,92.68
3240.00,92.67
3239.00,92.67
3238.00,92.67
3237.00,92.66
3236.00,92.66
3235.00,92.64
3234.00,92.62
3233.00,92.59
3232.00,92.57
3231.00,92.54
3230.00,92.52
3229.00,92.51
3228.00,92.50
3227.00,92.49
3226.00,92.48
3225.00,92.47
3224.00,92.46
3223.00,92.45
3222.00,92.44
3221.00,92.44
3220.00,92.44
3219.00,92.44
3218.00,92.45
3217.00,92.45
3216.00,92.46
3215.00,92.46
3214.00,92.45
3213.00,92.44
3212.00,92.42
3211.00,92.40
3210.00,92.38
3209.00,92.35
3208.00,92.33
3207.00,92.30
3206.00,92.28
3205.00,92.26
3204.00,92.24
3203.00,92.22
3202.00,92.20
3201.00,92.17
3200.00,92.15
3199.00,92.13
3198.00,92.12
3197.00,92.11
3196.00,92.11
3195.00,92.12
3194.00,92.13
3193.00,92.14
3192.00,92.15
3191.00,92.16
3190.00,92.16
3189.00,92.16
3188.00,92.16
3187.00,92.15
3186.00,92.14
3185.00,92.13
3184.00,92.11
3183.00,92.09
3182.00,92.07
3181.00,92.05
3180.00,92.04
3179.00,92.03
3178.00,92.03
3177.00,92.03
3176.00,92.03
3175.00,92.02
3174.00,92.01
3173.00,92.00
3172.00,91.97
3171.00,91.94
3170.00,91.91
3169.00,91.88
3168.00,91.86
3167.00,91.83
3166.00,91.82
3165.00,91.81
3164.00,91.81
3163.00,91.81
3162.00,91.82
3161.00,91.82
3160.00,91.83
3159.00,91.82
3158.00,91.81
3157.00,91.80
3156.00,91.79
3155.00,91.78
3154.00,91.78
3153.00,91.78
3152.00,91.80
3151.00,91.81
3150.00,91.83
3149.00,91.84
3148.00,91.84
3147.00,91.83
3146.00,91.82
3145.00,91.80
3144.00,91.78
3143.00,91.75
3142.00,91.73
3141.00,91.71
3140.00,91.69
3139.00,91.67
3138.00,91.65
3137.00,91.64
3136.00,91.62
3135.00,91.60
3134.00,91.59
3133.00,91.58
3132.00,91.57
3131.00,91.56
3130.00,91.56
3129.00,91.55
3128.00,91.54
3127.00,91.53
3126.00,91.51
3125.00,91.49
3124.00,91.46
3123.00,91.44
3122.00,91.41
3121.00,91.40
3120.00,91.39
3119.00,91.38
3118.00,91.38
3117.00,91.38
3116.00,91.38
3115.00,91.38
3114.00,91.38
3113.00,91.38
3112.00,91.37
3111.00,91.37
3110.00,91.36
3109.00,91.35
3108.00,91.34
3107.00,91.33
3106.00,91.32
3105.00,91.31
3104.00,91.30
3103.00,91.29
3102.00,91.27
3101.00,91.26
3100.00,91.25
3099.00,91.24
3098.00,91.23
3097.00,91.22
3096.00,91.21
3095.00,91.20
3094.00,91.18
3093.00,91.17
3092.00,91.16
3091.00,91.14
3090.00,91.13
3089.00,91.11
3088.00,91.10
3087.00,91.09
3086.00,91.08
3085.00,91.07
3084.00,91.06
3083.00,91.05
3082.00,91.04
3081.00,91.03
3080.00,91.02
3079.00,91.00
3078.00,90.98
3077.00,90.95
3076.00,90.93
3075.00,90.90
3074.00,90.87
3073.00,90.84
3072.00,90.83
3071.00,90.82
3070.00,90.81
3069.00,90.82
3068.00,90.82
3067.00,90.83
3066.00,90.83
3065.00,90.83
3064.00,90.83
3063.00,90.82
3062.00,90.80
3061.00,90.79
3060.00,90.77
3059.00,90.75
3058.00,90.74
3057.00,90.72
3056.00,90.71
3055.00,90.70
3054.00,90.69
3053.00,90.68
3052.00,90.67
3051.00,90.65
3050.00,90.64
3049.00,90.62
3048.00,90.60
3047.00,90.58
3046.00,90.56
3045.00,90.54
3044.00,90.53
3043.00,90.52
3042.00,90.51
3041.00,90.51
3040.00,90.51
3039.00,90.50
3038.00,90.50
3037.00,90.49
3036.00,90.47
3035.00,90.46
3034.00,90.45
3033.00,90.44
3032.00,90.43
3031.00,90.43
3030.00,90.43
3029.00,90.42
3028.00,90.42
3027.00,90.41
3026.00,90.39
3025.00,90.37
3024.00,90.36
3023.00,90.34
3022.00,90.32
3021.00,90.31
3020.00,90.30
3019.00,90.29
3018.00,90.28
3017.00,90.27
3016.00,90.26
3015.00,90.25
3014.00,90.23
3013.00,90.22
3012.00,90.21
3011.00,90.19
3010.00,90.18
3009.00,90.16
3008.00,90.16
3007.00,90.15
3006.00,90.15
3005.00,90.15
3004.00,90.16
3003.00,90.16
3002.00,90.16
3001.00,90.15
3000.00,90.14
2999.00,90.12
2998.00,90.10
2997.00,90.08
2996.00,90.06
2995.00,90.04
2994.00,90.03
2993.00,90.02
2992.00,90.01
2991.00,90.01
2990.00,90.01
2989.00,90.00
2988.00,89.99
2987.00,89.98
2986.00,89.97
2985.00,89.96
2984.00,89.94
2983.00,89.93
2982.00,89.91
2981.00,89.89
2980.00,89.88
2979.00,89.87
2978.00,89.86
2977.00,89.86
2976.00,89.87
2975.00,89.89
2974.00,89.90
2973.00,89.92
2972.00,89.94
2971.00,89.95
2970.00,89.96
2969.00,89.97
2968.00,89.98
2967.00,89.99
2966.00,90.00
2965.00,90.00
2964.00,90.01
2963.00,90.01
2962.00,90.02
2961.00,90.02
2960.00,90.03
2959.00,90.03
2958.00,90.03
2957.00,90.04
2956.00,90.04
2955.00,90.05
2954.00,90.06
2953.00,90.07
2952.00,90.08
2951.00,90.08
2950.00,90.09
2949.00,90.09
2948.00,90.09
2947.00,90.08
2946.00,90.08
2945.00,90.08
2944.00,90.08
2943.00,90.08
2942.00,90.09
2941.00,90.10
2940.00,90.11
2939.00,90.12
2938.00,90.12
2937.00,90.13
2936.00,90.14
2935.00,90.16
2934.00,90.17
2933.00,90.18
2932.00,90.19
2931.00,90.20
2930.00,90.20
2929.00,90.21
2928.00,90.21
2927.00,90.23
2926.00,90.24
2925.00,90.27
2924.00,90.29
2923.00,90.32
2922.00,90.34
2921.00,90.36
2920.00,90.38
2919.00,90.40
2918.00,90.42
2917.00,90.43
2916.00,90.43
2915.00,90.44
2914.00,90.45
2913.00,90.47
2912.00,90.49
2911.00,90.52
2910.00,90.56
2909.00,90.60
2908.00,90.63
2907.00,90.66
2906.00,90.68
2905.00,90.69
2904.00,90.70
2903.00,90.70
2902.00,90.71
2901.00,90.71
2900.00,90.73
2899.00,90.74
2898.00,90.76
2897.00,90.78
2896.00,90.80
2895.00,90.82
2894.00,90.84
2893.00,90.85
2892.00,90.87
2891.00,90.89
2890.00,90.92
2889.00,90.94
2888.00,90.97
2887.00,90.99
2886.00,91.01
2885.00,91.04
2884.00,91.07
2883.00,91.09
2882.00,91.12
2881.00,91.15
2880.00,91.18
2879.00,91.22
2878.00,91.26
2877.00,91.30
2876.00,91.34
2875.00,91.38
2874.00,91.42
2873.00,91.45
2872.00,91.48
2871.00,91.50
2870.00,91.52
2869.00,91.54
2868.00,91.56
2867.00,91.59
2866.00,91.62
2865.00,91.65
2864.00,91.69
2863.00,91.72
2862.00,91.76
2861.00,91.80
2860.00,91.84
2859.00,91.88
2858.00,91.91
2857.00,91.94
2856.00,91.96
2855.00,91.98
2854.00,91.99
2853.00,92.00
2852.00,92.01
2851.00,92.02
2850.00,92.03
2849.00,92.05
2848.00,92.08
2847.00,92.11
2846.00,92.14
2845.00,92.17
2844.00,92.21
2843.00,92.24
2842.00,92.27
2841.00,92.29
2840.00,92.32
2839.00,92.34
2838.00,92.36
2837.00,92.38
2836.00,92.40
2835.00,92.42
2834.00,92.44
2833.00,92.46
2832.00,92.48
2831.00,92.50
2830.00,92.53
2829.00,92.55
2828.00,92.57
2827.00,92.59
2826.00,92.61
2825.00,92.64
2824.00,92.67
2823.00,92.71
2822.00,92.74
2821.00,92.77
2820.00,92.81
2819.00,92.84
2818.00,92.87
2817.00,92.90
2816.00,92.94
2815.00,92.97
2814.00,93.01
2813.00,93.04
2812.00,93.07
2811.00,93.09
2810.00,93.12
2809.00,93.14
2808.00,93.16
2807.00,93.18
2806.00,93.20
2805.00,93.22
2804.00,93.25
2803.00,93.28
2802.00,93.31
2801.00,93.34
2800.00,93.37
2799.00,93.40
2798.00,93.43
2797.00,93.45
2796.00,93.47
2795.00,93.49
2794.00,93.51
2793.00,93.52
2792.00,93.54
2791.00,93.56
2790.00,93.58
2789.00,93.60
2788.00,93.63
2787.00,93.66
2786.00,93.69
2785.00,93.72
2784.00,93.75
2783.00,93.78
2782.00,93.81
2781.00,93.85
2780.00,93.88
2779.00,93.91
2778.00,93.93
2777.00,93.96
2776.00,93.98
2775.00,94.00
2774.00,94.01
2773.00,94.03
2772.00,94.05
2771.00,94.07
2770.00,94.09
2769.00,94.11
2768.00,94.13
2767.00,94.15
2766.00,94.16
2765.00,94.18
2764.00,94.20
2763.00,94.21
2762.00,94.23
2761.00,94.26
2760.00,94.28
2759.00,94.31
2758.00,94.33
2757.00,94.36
2756.00,94.38
2755.00,94.39
2754.00,94.40
2753.00,94.41
2752.00,94.43
2751.00,94.44
2750.00,94.46
2749.00,94.48
2748.00,94.49
2747.00,94.51
2746.00,94.52
2745.00,94.53
2744.00,94.54
2743.00,94.55
2742.00,94.57
2741.00,94.58
2740.00,94.60
2739.00,94.62
2738.00,94.63
2737.00,94.64
2736.00,94.65
2735.00,94.66
2734.00,94.67
2733.00,94.68
2732.00,94.69
2731.00,94.70
2730.00,94.71
2729.00,94.72
2728.00,94.73
2727.00,94.74
2726.00,94.76
2725.00,94.79
2724.00,94.81
2723.00,94.84
2722.00,94.86
2721.00,94.89
2720.00,94.91
2719.00,94.93
2718.00,94.94
2717.00,94.95
2716.00,94.96
2715.00,94.97
2714.00,94.97
2713.00,94.98
2712.00,94.99
2711.00,94.99
2710.00,95.00
2709.00,95.01
2708.00,95.03
2707.00,95.04
2706.00,95.06
2705.00,95.09
2704.00,95.11
2703.00,95.14
2702.00,95.16
2701.00,95.19
2700.00,95.21
2699.00,95.23
2698.00,95.25
2697.00,95.25
2696.00,95.26
2695.00,95.26
2694.00,95.27
2693.00,95.27
2692.00,95.28
2691.00,95.29
2690.00,95.30
2689.00,95.32
2688.00,95.33
2687.00,95.34
2686.00,95.35
2685.00,95.36
2684.00,95.37
2683.00,95.38
2682.00,95.40
2681.00,95.41
2680.00,95.43
2679.00,95.44
2678.00,95.45
2677.00,95.46
2676.00,95.47
2675.00,95.47
2674.00,95.48
2673.00,95.48
2672.00,95.48
2671.00,95.48
2670.00,95.48
2669.00,95.48
2668.00,95.48
2667.00,95.47
2666.00,95.47
2665.00,95.46
2664.00,95.45
2663.00,95.45
2662.00,95.44
2661.00,95.43
2660.00,95.42
2659.00,95.41
2658.00,95.40
2657.00,95.39
2656.00,95.38
2655.00,95.38
2654.00,95.37
2653.00,95.37
2652.00,95.37
2651.00,95.37
2650.00,95.37
2649.00,95.37
2648.00,95.37
2647.00,95.37
2646.00,95.37
2645.00,95.38
2644.00,95.39
2643.00,95.41
2642.00,95.43
2641.00,95.44
2640.00,95.46
2639.00,95.47
2638.00,95.47
2637.00,95.46
2636.00,95.45
2635.00,95.44
2634.00,95.43
2633.00,95.42
2632.00,95.42
2631.00,95.42
2630.00,95.43
2629.00,95.44
2628.00,95.45
2627.00,95.46
2626.00,95.47
2625.00,95.48
2624.00,95.50
2623.00,95.51
2622.00,95.54
2621.00,95.56
2620.00,95.60
2619.00,95.63
2618.00,95.67
2617.00,95.70
2616.00,95.74
2615.00,95.76
2614.00,95.78
2613.00,95.80
2612.00,95.82
2611.00,95.83
2610.00,95.84
2609.00,95.84
2608.00,95.84
2607.00,95.84
2606.00,95.84
2605.00,95.83
2604.00,95.83
2603.00,95.82
2602.00,95.82
2601.00,95.82
2600.00,95.83
2599.00,95.83
2598.00,95.84
2597.00,95.85
2596.00,95.87
2595.00,95.88
2594.00,95.89
2593.00,95.89
2592.00,95.90
2591.00,95.91
2590.00,95.91
2589.00,95.92
2588.00,95.92
2587.00,95.92
2586.00,95.91
2585.00,95.91
2584.00,95.91
2583.00,95.91
2582.00,95.91
2581.00,95.91
2580.00,95.92
2579.00,95.93
2578.00,95.94
2577.00,95.95
2576.00,95.96
2575.00,95.97
2574.00,95.98
2573.00,95.99
2572.00,95.99
2571.00,95.99
2570.00,96.00
2569.00,96.00
2568.00,96.00
2567.00,96.00
2566.00,96.00
2565.00,96.01
2564.00,96.01
2563.00,96.02
2562.00,96.04
2561.00,96.05
2560.00,96.07
2559.00,96.09
2558.00,96.11
2557.00,96.12
2556.00,96.13
2555.00,96.14
2554.00,96.14
2553.00,96.15
2552.00,96.16
2551.00,96.17
2550.00,96.18
2549.00,96.19
2548.00,96.20
2547.00,96.20
2546.00,96.20
2545.00,96.19
2544.00,96.19
2543.00,96.19
2542.00,96.18
2541.00,96.18
2540.00,96.19
2539.00,96.19
2538.00,96.20
2537.00,96.21
2536.00,96.23
2535.00,96.25
2534.00,96.27
2533.00,96.30
2532.00,96.34
2531.00,96.37
2530.00,96.40
2529.00,96.44
2528.00,96.46
2527.00,96.49
2526.00,96.51
2525.00,96.52
2524.00,96.53
2523.00,96.55
2522.00,96.57
2521.00,96.59
2520.00,96.62
2519.00,96.66
2518.00,96.70
2517.00,96.73
2516.00,96.76
2515.00,96.79
2514.00,96.80
2513.00,96.82
2512.00,96.82
2511.00,96.83
2510.00,96.84
2509.00,96.85
2508.00,96.86
2507.00,96.88
2506.00,96.90
2505.00,96.92
2504.00,96.95
2503.00,96.97
2502.00,96.99
2501.00,97.01
2500.00,97.02
2499.00,97.02
2498.00,97.02
2497.00,97.02
2496.00,97.03
2495.00,97.04
2494.00,97.06
2493.00,97.08
2492.00,97.11
2491.00,97.13
2490.00,97.15
2489.00,97.16
2488.00,97.17
2487.00,97.19
2486.00,97.20
2485.00,97.22
2484.00,97.24
2483.00,97.25
2482.00,97.27
2481.00,97.27
2480.00,97.27
2479.00,97.26
2478.00,97.24
2477.00,97.23
2476.00,97.22
2475.00,97.23
2474.00,97.23
2473.00,97.25
2472.00,97.27
2471.00,97.29
2470.00,97.31
2469.00,97.33
2468.00,97.35
2467.00,97.36
2466.00,97.37
2465.00,97.37
2464.00,97.37
2463.00,97.36
2462.00,97.35
2461.00,97.34
2460.00,97.33
2459.00,97.33
2458.00,97.32
2457.00,97.33
2456.00,97.33
2455.00,97.34
2454.00,97.34
2453.00,97.35
2452.00,97.35
2451.00,97.35
2450.00,97.35
2449.00,97.35
2448.00,97.35
2447.00,97.35
2446.00,97.35
2445.00,97.36
2444.00,97.37
2443.00,97.38
2442.00,97.39
2441.00,97.40
2440.00,97.42
2439.00,97.44
2438.00,97.45
2437.00,97.47
2436.00,97.48
2435.00,97.49
2434.00,97.50
2433.00,97.50
2432.00,97.51
2431.00,97.51
2430.00,97.50
2429.00,97.50
2428.00,97.49
2427.00,97.48
2426.00,97.47
2425.00,97.45
2424.00,97.44
2423.00,97.43
2422.00,97.43
2421.00,97.43
2420.00,97.44
2419.00,97.46
2418.00,97.47
2417.00,97.48
2416.00,97.49
2415.00,97.50
2414.00,97.50
2413.00,97.50
2412.00,97.50
2411.00,97.51
2410.00,97.52
2409.00,97.53
2408.00,97.55
2407.00,97.57
2406.00,97.59
2405.00,97.60
2404.00,97.61
2403.00,97.62
2402.00,97.63
2401.00,97.64
2400.00,97.64
2399.00,97.65
2398.00,97.65
2397.00,97.66
2396.00,97.66
2395.00,97.66
2394.00,97.65
2393.00,97.64
2392.00,97.63
2391.00,97.61
2390.00,97.60
2389.00,97.59
2388.00,97.59
2387.00,97.59
2386.00,97.60
2385.00,97.60
2384.00,97.61
2383.00,97.61
2382.00,97.62
2381.00,97.62
2380.00,97.62
2379.00,97.62
2378.00,97.62
2377.00,97.62
2376.00,97.62
2375.00,97.63
2374.00,97.63
2373.00,97.63
2372.00,97.63
2371.00,97.63
2370.00,97.63
2369.00,97.63
2368.00,97.64
2367.00,97.64
2366.00,97.64
2365.00,97.63
2364.00,97.63
2363.00,97.62
2362.00,97.61
2361.00,97.61
2360.00,97.61
2359.00,97.61
2358.00,97.61
2357.00,97.62
2356.00,97.62
2355.00,97.62
2354.00,97.62
2353.00,97.63
2352.00,97.63
2351.00,97.64
2350.00,97.64
2349.00,97.65
2348.00,97.65
2347.00,97.65
2346.00,97.64
2345.00,97.63
2344.00,97.63
2343.00,97.62
2342.00,97.61
2341.00,97.60
2340.00,97.60
2339.00,97.59
2338.00,97.59
2337.00,97.59
2336.00,97.58
2335.00,97.57
2334.00,97.56
2333.00,97.55
2332.00,97.54
2331.00,97.52
2330.00,97.49
2329.00,97.46
2328.00,97.42
2327.00,97.37
2326.00,97.32
2325.00,97.28
2324.00,97.25
2323.00,97.24
2322.00,97.24
2321.00,97.26
2320.00,97.28
2319.00,97.32
2318.00,97.35
2317.00,97.39
2316.00,97.42
2315.00,97.45
2314.00,97.47
2313.00,97.49
2312.00,97.51
2311.00,97.51
2310.00,97.52
2309.00,97.51
2308.00,97.50
2307.00,97.48
2306.00,97.47
2305.00,97.45
2304.00,97.44
2303.00,97.43
2302.00,97.42
2301.00,97.42
2300.00,97.41
2299.00,97.40
2298.00,97.40
2297.00,97.39
2296.00,97.39
2295.00,97.38
2294.00,97.38
2293.00,97.38
2292.00,97.37
2291.00,97.37
2290.00,97.36
2289.00,97.36
2288.00,97.36
2287.00,97.35
2286.00,97.35
2285.00,97.35
2284.00,97.35
2283.00,97.35
2282.00,97.35
2281.00,97.35
2280.00,97.35
2279.00,97.36
2278.00,97.36
2277.00,97.36
2276.00,97.37
2275.00,97.38
2274.00,97.39
2273.00,97.40
2272.00,97.42
2271.00,97.43
2270.00,97.44
2269.00,97.45
2268.00,97.45
2267.00,97.46
2266.00,97.47
2265.00,97.48
2264.00,97.49
2263.00,97.51
2262.00,97.53
2261.00,97.54
2260.00,97.54
2259.00,97.55
2258.00,97.55
2257.00,97.56
2256.00,97.57
2255.00,97.59
2254.00,97.61
2253.00,97.62
2252.00,97.63
2251.00,97.64
2250.00,97.65
2249.00,97.65
2248.00,97.65
2247.00,97.66
2246.00,97.66
2245.00,97.67
2244.00,97.67
2243.00,97.66
2242.00,97.66
2241.00,97.65
2240.00,97.64
2239.00,97.64
2238.00,97.65
2237.00,97.66
2236.00,97.68
2235.00,97.70
2234.00,97.72
2233.00,97.73
2232.00,97.72
2231.00,97.71
2230.00,97.69
2229.00,97.67
2228.00,97.65
2227.00,97.64
2226.00,97.63
2225.00,97.63
2224.00,97.63
2223.00,97.64
2222.00,97.64
2221.00,97.63
2220.00,97.63
2219.00,97.62
2218.00,97.61
2217.00,97.60
2216.00,97.60
2215.00,97.60
2214.00,97.62
2213.00,97.63
2212.00,97.66
2211.00,97.69
2210.00,97.72
2209.00,97.74
2208.00,97.76
2207.00,97.77
2206.00,97.78
2205.00,97.76
2204.00,97.73
2203.00,97.69
2202.00,97.63
2201.00,97.58
2200.00,97.53
2199.00,97.50
2198.00,97.49
2197.00,97.50
2196.00,97.52
2195.00,97.55
2194.00,97.58
2193.00,97.59
2192.00,97.59
2191.00,97.57
2190.00,97.55
2189.00,97.53
2188.00,97.52
2187.00,97.52
2186.00,97.53
2185.00,97.56
2184.00,97.59
2183.00,97.64
2182.00,97.69
2181.00,97.74
2180.00,97.79
2179.00,97.84
2178.00,97.88
2177.00,97.90
2176.00,97.90
2175.00,97.86
2174.00,97.80
2173.00,97.71
2172.00,97.61
2171.00,97.49
2170.00,97.38
2169.00,97.27
2168.00,97.19
2167.00,97.13
2166.00,97.12
2165.00,97.14
2164.00,97.22
2163.00,97.35
2162.00,97.52
2161.00,97.72
2160.00,97.93
2159.00,98.13
2158.00,98.30
2157.00,98.41
2156.00,98.48
2155.00,98.51
2154.00,98.49
2153.00,98.46
2152.00,98.40
2151.00,98.34
2150.00,98.28
2149.00,98.22
2148.00,98.17
2147.00,98.12
2146.00,98.08
2145.00,98.05
2144.00,98.03
2143.00,98.02
2142.00,98.02
2141.00,98.03
2140.00,98.04
2139.00,98.06
2138.00,98.08
2137.00,98.11
2136.00,98.13
2135.00,98.15
2134.00,98.16
2133.00,98.17
2132.00,98.17
2131.00,98.18
2130.00,98.18
2129.00,98.17
2128.00,98.15
2127.00,98.13
2126.00,98.09
2125.00,98.05
2124.00,98.01
2123.00,97.97
2122.00,97.93
2121.00,97.90
2120.00,97.88
2119.00,97.87
2118.00,97.85
2117.00,97.83
2116.00,97.81
2115.00,97.79
2114.00,97.77
2113.00,97.76
2112.00,97.75
2111.00,97.75
2110.00,97.76
2109.00,97.76
2108.00,97.76
2107.00,97.76
2106.00,97.76
2105.00,97.75
2104.00,97.76
2103.00,97.77
2102.00,97.78
2101.00,97.81
2100.00,97.83
2099.00,97.86
2098.00,97.87
2097.00,97.88
2096.00,97.88
2095.00,97.87
2094.00,97.84
2093.00,97.81
2092.00,97.76
2091.00,97.72
2090.00,97.68
2089.00,97.65
2088.00,97.64
2087.00,97.63
2086.00,97.64
2085.00,97.66
2084.00,97.67
2083.00,97.69
2082.00,97.70
2081.00,97.70
2080.00,97.71
2079.00,97.71
2078.00,97.71
2077.00,97.71
2076.00,97.71
2075.00,97.71
2074.00,97.71
2073.00,97.71
2072.00,97.72
2071.00,97.72
2070.00,97.72
2069.00,97.72
2068.00,97.72
2067.00,97.73
2066.00,97.73
2065.00,97.73
2064.00,97.73
2063.00,97.73
2062.00,97.73
2061.00,97.72
2060.00,97.71
2059.00,97.69
2058.00,97.67
2057.00,97.65
2056.00,97.63
2055.00,97.62
2054.00,97.60
2053.00,97.59
2052.00,97.58
2051.00,97.56
2050.00,97.55
2049.00,97.54
2048.00,97.54
2047.00,97.54
2046.00,97.54
2045.00,97.54
2044.00,97.54
2043.00,97.53
2042.00,97.51
2041.00,97.49
2040.00,97.46
2039.00,97.44
2038.00,97.44
2037.00,97.44
2036.00,97.46
2035.00,97.50
2034.00,97.54
2033.00,97.58
2032.00,97.62
2031.00,97.67
2030.00,97.71
2029.00,97.75
2028.00,97.78
2027.00,97.81
2026.00,97.82
2025.00,97.82
2024.00,97.81
2023.00,97.78
2022.00,97.73
2021.00,97.67
2020.00,97.61
2019.00,97.55
2018.00,97.51
2017.00,97.49
2016.00,97.49
2015.00,97.52
2014.00,97.55
2013.00,97.60
2012.00,97.64
2011.00,97.68
2010.00,97.70
2009.00,97.72
2008.00,97.73
2007.00,97.74
2006.00,97.75
2005.00,97.76
2004.00,97.75
2003.00,97.74
2002.00,97.72
2001.00,97.69
2000.00,97.66
1999.00,97.64
1998.00,97.62
1997.00,97.61
1996.00,97.60
1995.00,97.60
1994.00,97.60
1993.00,97.61
1992.00,97.61
1991.00,97.60
1990.00,97.59
1989.00,97.58
1988.00,97.55
1987.00,97.50
1986.00,97.44
1985.00,97.37
1984.00,97.30
1983.00,97.24
1982.00,97.21
1981.00,97.21
1980.00,97.25
1979.00,97.34
1978.00,97.44
1977.00,97.57
1976.00,97.68
1975.00,97.78
1974.00,97.85
1973.00,97.89
1972.00,97.90
1971.00,97.90
1970.00,97.89
1969.00,97.88
1968.00,97.87
1967.00,97.87
1966.00,97.89
1965.00,97.91
1964.00,97.93
1963.00,97.95
1962.00,97.96
1961.00,97.96
1960.00,97.95
1959.00,97.94
1958.00,97.93
1957.00,97.92
1956.00,97.91
1955.00,97.90
1954.00,97.91
1953.00,97.92
1952.00,97.94
1951.00,97.97
1950.00,97.99
1949.00,98.02
1948.00,98.03
1947.00,98.04
1946.00,98.03
1945.00,98.02
1944.00,98.00
1943.00,97.99
1942.00,97.98
1941.00,97.98
1940.00,97.99
1939.00,97.99
1938.00,98.00
1937.00,98.00
1936.00,98.01
1935.00,98.01
1934.00,98.01
1933.00,98.01
1932.00,98.01
1931.00,98.01
1930.00,98.01
1929.00,98.02
1928.00,98.02
1927.00,98.02
1926.00,98.02
1925.00,98.01
1924.00,98.01
1923.00,98.00
1922.00,97.98
1921.00,97.96
1920.00,97.94
1919.00,97.93
1918.00,97.92
1917.00,97.91
1916.00,97.91
1915.00,97.91
1914.00,97.91
1913.00,97.90
1912.00,97.90
1911.00,97.90
1910.00,97.90
1909.00,97.90
1908.00,97.91
1907.00,97.92
1906.00,97.94
1905.00,97.95
1904.00,97.96
1903.00,97.97
1902.00,97.97
1901.00,97.97
1900.00,97.97
1899.00,97.97
1898.00,97.97
1897.00,97.97
1896.00,97.97
1895.00,97.98
1894.00,97.98
1893.00,97.98
1892.00,97.98
1891.00,97.97
1890.00,97.95
1889.00,97.92
1888.00,97.90
1887.00,97.87
1886.00,97.84
1885.00,97.82
1884.00,97.80
1883.00,97.79
1882.00,97.78
1881.00,97.77
1880.00,97.76
1879.00,97.73
1878.00,97.70
1877.00,97.67
1876.00,97.63
1875.00,97.59
1874.00,97.55
1873.00,97.52
1872.00,97.49
1871.00,97.47
1870.00,97.45
1869.00,97.43
1868.00,97.41
1867.00,97.40
1866.00,97.39
1865.00,97.39
1864.00,97.39
1863.00,97.40
1862.00,97.42
1861.00,97.43
1860.00,97.45
1859.00,97.46
1858.00,97.48
1857.00,97.49
1856.00,97.49
1855.00,97.50
1854.00,97.50
1853.00,97.50
1852.00,97.51
1851.00,97.51
1850.00,97.52
1849.00,97.52
1848.00,97.51
1847.00,97.50
1846.00,97.49
1845.00,97.48
1844.00,97.47
1843.00,97.45
1842.00,97.45
1841.00,97.44
1840.00,97.44
1839.00,97.45
1838.00,97.45
1837.00,97.46
1836.00,97.46
1835.00,97.47
1834.00,97.47
1833.00,97.47
1832.00,97.47
1831.00,97.48
1830.00,97.48
1829.00,97.49
1828.00,97.51
1827.00,97.52
1826.00,97.53
1825.00,97.54
1824.00,97.55
1823.00,97.56
1822.00,97.57
1821.00,97.58
1820.00,97.60
1819.00,97.62
1818.00,97.64
1817.00,97.66
1816.00,97.67
1815.00,97.68
1814.00,97.69
1813.00,97.69
1812.00,97.69
1811.00,97.69
1810.00,97.70
1809.00,97.70
1808.00,97.71
1807.00,97.72
1806.00,97.73
1805.00,97.73
1804.00,97.73
1803.00,97.73
1802.00,97.73
1801.00,97.72
1800.00,97.71
1799.00,97.71
1798.00,97.70
1797.00,97.69
1796.00,97.69
1795.00,97.68
1794.00,97.68
1793.00,97.67
1792.00,97.67
1791.00,97.66
1790.00,97.66
1789.00,97.65
1788.00,97.65
1787.00,97.64
1786.00,97.63
1785.00,97.63
1784.00,97.63
1783.00,97.63
1782.00,97.62
1781.00,97.62
1780.00,97.62
1779.00,97.62
1778.00,97.61
1777.00,97.60
1776.00,97.60
1775.00,97.59
1774.00,97.58
1773.00,97.57
1772.00,97.56
1771.00,97.54
1770.00,97.52
1769.00,97.50
1768.00,97.48
1767.00,97.46
1766.00,97.44
1765.00,97.43
1764.00,97.41
1763.00,97.40
1762.00,97.38
1761.00,97.37
1760.00,97.36
1759.00,97.34
1758.00,97.33
1757.00,97.32
1756.00,97.30
1755.00,97.29
1754.00,97.27
1753.00,97.25
1752.00,97.22
1751.00,97.19
1750.00,97.17
1749.00,97.14
1748.00,97.11
1747.00,97.08
1746.00,97.06
1745.00,97.04
1744.00,97.01
1743.00,96.99
1742.00,96.97
1741.00,96.95
1740.00,96.92
1739.00,96.90
1738.00,96.87
1737.00,96.84
1736.00,96.82
1735.00,96.79
1734.00,96.76
1733.00,96.73
1732.00,96.70
1731.00,96.66
1730.00,96.61
1729.00,96.57
1728.00,96.52
1727.00,96.48
1726.00,96.44
1725.00,96.39
1724.00,96.35
1723.00,96.30
1722.00,96.25
1721.00,96.19
1720.00,96.13
1719.00,96.07
1718.00,96.01
1717.00,95.94
1716.00,95.88
1715.00,95.81
1714.00,95.74
1713.00,95.68
1712.00,95.61
1711.00,95.55
1710.00,95.48
1709.00,95.41
1708.00,95.34
1707.00,95.27
1706.00,95.19
1705.00,95.11
1704.00,95.02
1703.00,94.93
1702.00,94.84
1701.00,94.74
1700.00,94.65
1699.00,94.55
1698.00,94.46
1697.00,94.36
1696.00,94.26
1695.00,94.16
1694.00,94.06
1693.00,93.96
1692.00,93.86
1691.00,93.76
1690.00,93.66
1689.00,93.55
1688.00,93.44
1687.00,93.34
1686.00,93.23
1685.00,93.12
1684.00,93.02
1683.00,92.91
1682.00,92.80
1681.00,92.70
1680.00,92.59
1679.00,92.49
1678.00,92.38
1677.00,92.28
1676.00,92.19
1675.00,92.09
1674.00,92.00
1673.00,91.91
1672.00,91.82
1671.00,91.73
1670.00,91.65
1669.00,91.57
1668.00,91.49
1667.00,91.42
1666.00,91.35
1665.00,91.28
1664.00,91.22
1663.00,91.16
1662.00,91.11
1661.00,91.06
1660.00,91.01
1659.00,90.97
1658.00,90.93
1657.00,90.89
1656.00,90.85
1655.00,90.82
1654.00,90.79
1653.00,90.76
1652.00,90.74
1651.00,90.72
1650.00,90.70
1649.00,90.68
1648.00,90.67
1647.00,90.66
1646.00,90.65
1645.00,90.64
1644.00,90.63
1643.00,90.63
1642.00,90.63
1641.00,90.62
1640.00,90.61
1639.00,90.61
1638.00,90.60
1637.00,90.59
1636.00,90.57
1635.00,90.56
1634.00,90.54
1633.00,90.53
1632.00,90.52
1631.00,90.50
1630.00,90.49
1629.00,90.48
1628.00,90.46
1627.00,90.44
1626.00,90.43
1625.00,90.40
1624.00,90.38
1623.00,90.35
1622.00,90.33
1621.00,90.30
1620.00,90.26
1619.00,90.23
1618.00,90.19
1617.00,90.14
1616.00,90.09
1615.00,90.04
1614.00,89.98
1613.00,89.92
1612.00,89.86
1611.00,89.80
1610.00,89.74
1609.00,89.68
1608.00,89.62
1607.00,89.55
1606.00,89.48
1605.00,89.40
1604.00,89.31
1603.00,89.22
1602.00,89.12
1601.00,89.01
1600.00,88.91
1599.00,88.80
1598.00,88.69
1597.00,88.58
1596.00,88.47
1595.00,88.36
1594.00,88.25
1593.00,88.14
1592.00,88.02
1591.00,87.90
1590.00,87.78
1589.00,87.65
1588.00,87.52
1587.00,87.38
1586.00,87.23
1585.00,87.08
1584.00,86.92
1583.00,86.76
1582.00,86.59
1581.00,86.42
1580.00,86.23
1579.00,86.05
1578.00,85.85
1577.00,85.65
1576.00,85.44
1575.00,85.23
1574.00,85.01
1573.00,84.79
1572.00,84.55
1571.00,84.31
1570.00,84.06
1569.00,83.81
1568.00,83.55
1567.00,83.28
1566.00,83.00
1565.00,82.72
1564.00,82.43
1563.00,82.14
1562.00,81.83
1561.00,81.52
1560.00,81.20
1559.00,80.88
1558.00,80.55
1557.00,80.21
1556.00,79.87
1555.00,79.52
1554.00,79.17
1553.00,78.80
1552.00,78.43
1551.00,78.05
1550.00,77.67
1549.00,77.27
1548.00,76.86
1547.00,76.45
1546.00,76.02
1545.00,75.59
1544.00,75.15
1543.00,74.71
1542.00,74.25
1541.00,73.79
1540.00,73.32
1539.00,72.84
1538.00,72.35
1537.00,71.85
1536.00,71.34
1535.00,70.83
1534.00,70.30
1533.00,69.77
1532.00,69.23
1531.00,68.69
1530.00,68.13
1529.00,67.57
1528.00,67.00
1527.00,66.42
1526.00,65.83
1525.00,65.23
1524.00,64.62
1523.00,64.02
1522.00,63.41
1521.00,62.80
1520.00,62.20
1519.00,61.61
1518.00,61.03
1517.00,60.45
1516.00,59.88
1515.00,59.32
1514.00,58.75
1513.00,58.17
1512.00,57.59
1511.00,57.00
1510.00,56.40
1509.00,55.79
1508.00,55.17
1507.00,54.54
1506.00,53.90
1505.00,53.25
1504.00,52.60
1503.00,51.94
1502.00,51.28
1501.00,50.60
1500.00,49.90
1499.00,49.18
1498.00,48.41
1497.00,47.60
1496.00,46.73
1495.00,45.79
1494.00,44.79
1493.00,43.71
1492.00,42.56
1491.00,41.33
1490.00,40.03
1489.00,38.65
1488.00,37.20
1487.00,35.69
1486.00,34.13
1485.00,32.55
1484.00,30.98
1483.00,29.45
1482.00,28.01
1481.00,26.70
1480.00,25.54
1479.00,24.56
1478.00,23.79
1477.00,23.22
1476.00,22.86
1475.00,22.69
1474.00,22.70
1473.00,22.88
1472.00,23.20
1471.00,23.64
1470.00,24.18
1469.00,24.81
1468.00,25.51
1467.00,26.27
1466.00,27.07
1465.00,27.90
1464.00,28.74
1463.00,29.58
1462.00,30.41
1461.00,31.22
1460.00,32.01
1459.00,32.77
1458.00,33.51
1457.00,34.21
1456.00,34.90
1455.00,35.56
1454.00,36.20
1453.00,36.82
1452.00,37.42
1451.00,37.99
1450.00,38.52
1449.00,39.00
1448.00,39.42
1447.00,39.77
1446.00,40.04
1445.00,40.23
1444.00,40.33
1443.00,40.33
1442.00,40.22
1441.00,39.99
1440.00,39.64
1439.00,39.16
1438.00,38.56
1437.00,37.82
1436.00,36.96
1435.00,35.98
1434.00,34.88
1433.00,33.68
1432.00,32.38
1431.00,31.00
1430.00,29.54
1429.00,28.02
1428.00,26.46
1427.00,24.88
1426.00,23.29
1425.00,21.71
1424.00,20.18
1423.00,18.70
1422.00,17.32
1421.00,16.04
1420.00,14.91
1419.00,13.93
1418.00,13.12
1417.00,12.51
1416.00,12.09
1415.00,11.86
1414.00,11.82
1413.00,11.95
1412.00,12.24
1411.00,12.66
1410.00,13.21
1409.00,13.86
1408.00,14.59
1407.00,15.39
1406.00,16.24
1405.00,17.14
1404.00,18.07
1403.00,19.04
1402.00,20.05
1401.00,21.10
1400.00,22.20
1399.00,23.34
1398.00,24.53
1397.00,25.76
1396.00,27.03
1395.00,28.33
1394.00,29.65
1393.00,30.98
1392.00,32.33
1391.00,33.68
1390.00,35.03
1389.00,36.38
1388.00,37.73
1387.00,39.07
1386.00,40.41
1385.00,41.73
1384.00,43.04
1383.00,44.33
1382.00,45.60
1381.00,46.85
1380.00,48.09
1379.00,49.30
1378.00,50.49
1377.00,51.66
1376.00,52.82
1375.00,53.96
1374.00,55.08
1373.00,56.17
1372.00,57.25
1371.00,58.30
1370.00,59.32
1369.00,60.33
1368.00,61.30
1367.00,62.25
1366.00,63.18
1365.00,64.08
1364.00,64.96
1363.00,65.82
1362.00,66.66
1361.00,67.48
1360.00,68.28
1359.00,69.06
1358.00,69.82
1357.00,70.56
1356.00,71.29
1355.00,72.00
1354.00,72.69
1353.00,73.35
1352.00,74.00
1351.00,74.63
1350.00,75.24
1349.00,75.83
1348.00,76.41
1347.00,76.97
1346.00,77.51
1345.00,78.03
1344.00,78.53
1343.00,79.01
1342.00,79.48
1341.00,79.93
1340.00,80.36
1339.00,80.78
1338.00,81.18
1337.00,81.57
1336.00,81.95
1335.00,82.32
1334.00,82.67
1333.00,83.01
1332.00,83.34
1331.00,83.66
1330.00,83.96
1329.00,84.25
1328.00,84.54
1327.00,84.81
1326.00,85.08
1325.00,85.35
1324.00,85.61
1323.00,85.86
1322.00,86.10
1321.00,86.33
1320.00,86.56
1319.00,86.78
1318.00,86.99
1317.00,87.20
1316.00,87.40
1315.00,87.59
1314.00,87.78
1313.00,87.96
1312.00,88.14
1311.00,88.32
1310.00,88.49
1309.00,88.66
1308.00,88.82
1307.00,88.98
1306.00,89.13
1305.00,89.28
1304.00,89.42
1303.00,89.55
1302.00,89.67
1301.00,89.80
1300.00,89.91
1299.00,90.03
1298.00,90.14
1297.00,90.25
1296.00,90.35
1295.00,90.45
1294.00,90.55
1293.00,90.64
1292.00,90.74
1291.00,90.83
1290.00,90.91
1289.00,91.00
1288.00,91.08
1287.00,91.16
1286.00,91.23
1285.00,91.30
1284.00,91.36
1283.00,91.42
1282.00,91.48
1281.00,91.54
1280.00,91.59
1279.00,91.65
1278.00,91.71
1277.00,91.77
1276.00,91.83
1275.00,91.90
1274.00,91.96
1273.00,92.02
1272.00,92.09
1271.00,92.14
1270.00,92.20
1269.00,92.25
1268.00,92.30
1267.00,92.35
1266.00,92.40
1265.00,92.45
1264.00,92.50
1263.00,92.55
1262.00,92.60
1261.00,92.65
1260.00,92.69
1259.00,92.74
1258.00,92.78
1257.00,92.82
1256.00,92.86
1255.00,92.90
1254.00,92.93
1253.00,92.97
1252.00,93.00
1251.00,93.04
1250.00,93.08
1249.00,93.12
1248.00,93.17
1247.00,93.22
1246.00,93.26
1245.00,93.30
1244.00,93.34
1243.00,93.38
1242.00,93.41
1241.00,93.43
1240.00,93.46
1239.00,93.49
1238.00,93.52
1237.00,93.55
1236.00,93.59
1235.00,93.62
1234.00,93.65
1233.00,93.68
1232.00,93.70
1231.00,93.73
1230.00,93.75
1229.00,93.77
1228.00,93.79
1227.00,93.81
1226.00,93.83
1225.00,93.86
1224.00,93.89
1223.00,93.91
1222.00,93.94
1221.00,93.97
1220.00,93.99
1219.00,94.02
1218.00,94.04
1217.00,94.05
1216.00,94.06
1215.00,94.08
1214.00,94.09
1213.00,94.10
1212.00,94.12
1211.00,94.14
1210.00,94.16
1209.00,94.18
1208.00,94.21
1207.00,94.24
1206.00,94.27
1205.00,94.29
1204.00,94.32
1203.00,94.35
1202.00,94.37
1201.00,94.39
1200.00,94.41
1199.00,94.43
1198.00,94.44
1197.00,94.46
1196.00,94.47
1195.00,94.49
1194.00,94.50
1193.00,94.51
1192.00,94.51
1191.00,94.52
1190.00,94.53
1189.00,94.54
1188.00,94.55
1187.00,94.55
1186.00,94.56
1185.00,94.57
1184.00,94.58
1183.00,94.59
1182.00,94.59
1181.00,94.59
1180.00,94.60
1179.00,94.60
1178.00,94.61
1177.00,94.61
1176.00,94.62
1175.00,94.63
1174.00,94.65
1173.00,94.66
1172.00,94.67
1171.00,94.67
1170.00,94.67
1169.00,94.66
1168.00,94.65
1167.00,94.64
1166.00,94.63
1165.00,94.62
1164.00,94.62
1163.00,94.61
1162.00,94.61
1161.00,94.61
1160.00,94.61
1159.00,94.60
1158.00,94.60
1157.00,94.59
1156.00,94.58
1155.00,94.57
1154.00,94.56
1153.00,94.54
1152.00,94.52
1151.00,94.50
1150.00,94.48
1149.00,94.46
1148.00,94.44
1147.00,94.41
1146.00,94.39
1145.00,94.36
1144.00,94.33
1143.00,94.29
1142.00,94.25
1141.00,94.20
1140.00,94.13
1139.00,94.06
1138.00,93.98
1137.00,93.88
1136.00,93.75
1135.00,93.60
1134.00,93.41
1133.00,93.16
1132.00,92.86
1131.00,92.48
1130.00,92.01
1129.00,91.44
1128.00,90.79
1127.00,90.05
1126.00,89.25
1125.00,88.43
1124.00,87.64
1123.00,86.92
1122.00,86.33
1121.00,85.90
1120.00,85.65
1119.00,85.58
1118.00,85.66
1117.00,85.87
1116.00,86.16
1115.00,86.49
1114.00,86.83
1113.00,87.17
1112.00,87.51
1111.00,87.86
1110.00,88.23
1109.00,88.62
1108.00,89.04
1107.00,89.47
1106.00,89.91
1105.00,90.32
1104.00,90.70
1103.00,91.03
1102.00,91.32
1101.00,91.55
1100.00,91.74
1099.00,91.89
1098.00,92.02
1097.00,92.12
1096.00,92.22
1095.00,92.31
1094.00,92.41
1093.00,92.51
1092.00,92.61
1091.00,92.71
1090.00,92.80
1089.00,92.89
1088.00,92.97
1087.00,93.05
1086.00,93.11
1085.00,93.17
1084.00,93.23
1083.00,93.29
1082.00,93.35
1081.00,93.40
1080.00,93.45
1079.00,93.50
1078.00,93.53
1077.00,93.56
1076.00,93.58
1075.00,93.59
1074.00,93.60
1073.00,93.60
1072.00,93.59
1071.00,93.59
1070.00,93.58
1069.00,93.57
1068.00,93.55
1067.00,93.52
1066.00,93.48
1065.00,93.44
1064.00,93.38
1063.00,93.32
1062.00,93.25
1061.00,93.18
1060.00,93.10
1059.00,93.03
1058.00,92.95
1057.00,92.88
1056.00,92.81
1055.00,92.76
1054.00,92.71
1053.00,92.68
1052.00,92.66
1051.00,92.64
1050.00,92.64
1049.00,92.64
1048.00,92.64
1047.00,92.65
1046.00,92.66
1045.00,92.66
1044.00,92.67
1043.00,92.66
1042.00,92.65
1041.00,92.63
1040.00,92.62
1039.00,92.60
1038.00,92.58
1037.00,92.56
1036.00,92.54
1035.00,92.52
1034.00,92.50
1033.00,92.47
1032.00,92.44
1031.00,92.40
1030.00,92.36
1029.00,92.32
1028.00,92.28
1027.00,92.24
1026.00,92.20
1025.00,92.17
1024.00,92.13
1023.00,92.10
1022.00,92.06
1021.00,92.02
1020.00,91.99
1019.00,91.95
1018.00,91.91
1017.00,91.87
1016.00,91.83
1015.00,91.79
1014.00,91.76
1013.00,91.72
1012.00,91.68
1011.00,91.64
1010.00,91.60
1009.00,91.55
1008.00,91.51
1007.00,91.46
1006.00,91.42
1005.00,91.39
1004.00,91.35
1003.00,91.32
1002.00,91.29
1001.00,91.26
1000.00,91.22
999.00,91.19
998.00,91.15
997.00,91.11
996.00,91.08
995.00,91.04
994.00,91.00
993.00,90.96
992.00,90.92
991.00,90.89
990.00,90.86
989.00,90.83
988.00,90.80
987.00,90.77
986.00,90.73
985.00,90.70
984.00,90.67
983.00,90.63
982.00,90.60
981.00,90.58
980.00,90.55
979.00,90.53
978.00,90.50
977.00,90.47
976.00,90.45
975.00,90.43
974.00,90.41
973.00,90.39
972.00,90.37
971.00,90.35
970.00,90.33
969.00,90.30
968.00,90.27
967.00,90.25
966.00,90.22
965.00,90.19
964.00,90.16
963.00,90.13
962.00,90.10
961.00,90.07
960.00,90.04
959.00,90.01
958.00,89.99
957.00,89.96
956.00,89.94
955.00,89.92
954.00,89.89
953.00,89.87
952.00,89.84
951.00,89.81
950.00,89.79
949.00,89.77
948.00,89.76
947.00,89.74
946.00,89.72
945.00,89.71
944.00,89.69
943.00,89.67
942.00,89.66
941.00,89.64
940.00,89.62
939.00,89.60
938.00,89.58
937.00,89.56
936.00,89.54
935.00,89.53
934.00,89.53
933.00,89.52
932.00,89.52
931.00,89.51
930.00,89.50
929.00,89.49
928.00,89.48
927.00,89.47
926.00,89.48
925.00,89.48
924.00,89.49
923.00,89.50
922.00,89.51
921.00,89.51
920.00,89.51
919.00,89.52
918.00,89.53
917.00,89.55
916.00,89.57
915.00,89.58
914.00,89.59
913.00,89.60
912.00,89.60
911.00,89.62
910.00,89.64
909.00,89.66
908.00,89.68
907.00,89.69
906.00,89.69
905.00,89.69
904.00,89.69
903.00,89.68
902.00,89.69
901.00,89.69
900.00,89.69
899.00,89.67
898.00,89.63
897.00,89.54
896.00,89.39
895.00,89.12
894.00,88.67
893.00,87.94
892.00,86.86
891.00,85.37
890.00,83.46
889.00,81.23
888.00,78.83
887.00,76.50
886.00,74.47
885.00,72.96
884.00,72.09
883.00,71.90
882.00,72.32
881.00,73.21
880.00,74.38
879.00,75.67
878.00,76.96
877.00,78.15
876.00,79.23
875.00,80.18
874.00,81.02
873.00,81.75
872.00,82.35
871.00,82.81
870.00,83.12
869.00,83.28
868.00,83.29
867.00,83.14
866.00,82.85
865.00,82.41
864.00,81.81
863.00,81.05
862.00,80.13
861.00,79.06
860.00,77.86
859.00,76.57
858.00,75.24
857.00,73.95
856.00,72.79
855.00,71.84
854.00,71.20
853.00,70.94
852.00,71.07
851.00,71.60
850.00,72.43
849.00,73.49
848.00,74.65
847.00,75.80
846.00,76.86
845.00,77.78
844.00,78.54
843.00,79.15
842.00,79.63
841.00,80.00
840.00,80.29
839.00,80.52
838.00,80.68
837.00,80.79
836.00,80.86
835.00,80.89
834.00,80.90
833.00,80.88
832.00,80.83
831.00,80.75
830.00,80.65
829.00,80.52
828.00,80.36
827.00,80.18
826.00,79.98
825.00,79.75
824.00,79.49
823.00,79.19
822.00,78.85
821.00,78.47
820.00,78.04
819.00,77.58
818.00,77.07
817.00,76.52
816.00,75.91
815.00,75.26
814.00,74.54
813.00,73.78
812.00,72.97
811.00,72.12
810.00,71.24
809.00,70.32
808.00,69.37
807.00,68.39
806.00,67.38
805.00,66.36
804.00,65.33
803.00,64.30
802.00,63.28
801.00,62.28
800.00,61.31
799.00,60.35
798.00,59.42
797.00,58.53
796.00,57.68
795.00,56.90
794.00,56.17
793.00,55.52
792.00,54.95
791.00,54.45
790.00,54.02
789.00,53.69
788.00,53.44
787.00,53.28
786.00,53.23
785.00,53.28
784.00,53.43
783.00,53.68
782.00,54.04
781.00,54.50
780.00,55.05
779.00,55.70
778.00,56.44
777.00,57.26
776.00,58.13
775.00,59.05
774.00,60.00
773.00,60.95
772.00,61.90
771.00,62.82
770.00,63.72
769.00,64.58
768.00,65.38
767.00,66.12
766.00,66.80
765.00,67.41
764.00,67.95
763.00,68.42
762.00,68.82
761.00,69.15
760.00,69.41
759.00,69.58
758.00,69.68
757.00,69.71
756.00,69.66
755.00,69.56
754.00,69.40
753.00,69.19
752.00,68.94
751.00,68.65
750.00,68.35
749.00,68.05
748.00,67.77
747.00,67.54
746.00,67.38
745.00,67.30
744.00,67.32
743.00,67.43
742.00,67.61
741.00,67.85
740.00,68.13
739.00,68.41
738.00,68.67
737.00,68.90
736.00,69.08
735.00,69.20
734.00,69.27
733.00,69.29
732.00,69.29
731.00,69.27
730.00,69.25
729.00,69.23
728.00,69.22
727.00,69.21
726.00,69.19
725.00,69.16
724.00,69.10
723.00,69.02
722.00,68.90
721.00,68.75
720.00,68.55
719.00,68.33
718.00,68.08
717.00,67.82
716.00,67.58
715.00,67.36
714.00,67.20
713.00,67.09
712.00,67.05
711.00,67.07
710.00,67.14
709.00,67.27
708.00,67.44
707.00,67.64
706.00,67.87
705.00,68.12
704.00,68.38
703.00,68.66
702.00,68.95
701.00,69.26
700.00,69.58
699.00,69.91
698.00,70.25
697.00,70.60
696.00,70.95
695.00,71.29
694.00,71.62
693.00,71.92
692.00,72.21
691.00,72.48
690.00,72.73
689.00,72.96
688.00,73.18
687.00,73.37
686.00,73.54
685.00,73.68
684.00,73.79
683.00,73.86
682.00,73.91
681.00,73.92
680.00,73.90
679.00,73.85
678.00,73.76
677.00,73.64
676.00,73.48
675.00,73.30
674.00,73.09
673.00,72.86
672.00,72.60
671.00,72.33
670.00,72.04
669.00,71.75
668.00,71.46
667.00,71.18
666.00,70.92
665.00,70.68
664.00,70.45
663.00,70.25
662.00,70.07
661.00,69.92
660.00,69.79
659.00,69.69
658.00,69.62
657.00,69.56
656.00,69.53
655.00,69.49
654.00,69.46
653.00,69.42
652.00,69.39
651.00,69.37
650.00,69.36
649.00,69.36
648.00,69.36
647.00,69.36
646.00,69.34
645.00,69.29
644.00,69.22
643.00,69.11
642.00,68.98
641.00,68.83
640.00,68.66
639.00,68.47
638.00,68.26
637.00,68.03
636.00,67.77
635.00,67.49
634.00,67.19
633.00,66.87
632.00,66.53
631.00,66.17
630.00,65.78
629.00,65.37
628.00,64.92
627.00,64.45
626.00,63.96
625.00,63.43
624.00,62.86
623.00,62.26
622.00,61.62
621.00,60.95
620.00,60.24
619.00,59.52
618.00,58.79
617.00,58.04
616.00,57.27
615.00,56.47
614.00,55.62
613.00,54.72
612.00,53.79
611.00,52.83
610.00,51.85
609.00,50.88
608.00,49.90
607.00,48.94
606.00,47.98
605.00,47.04
604.00,46.10
603.00,45.17
602.00,44.26
601.00,43.36
600.00,42.47
599.00,41.59
598.00,40.71
597.00,39.85
596.00,39.00
595.00,38.19
594.00,37.42
593.00,36.71
592.00,36.08
591.00,35.53
590.00,35.08
589.00,34.72
588.00,34.48
587.00,34.35
586.00,34.33
585.00,34.41
584.00,34.58
583.00,34.85
582.00,35.23
581.00,35.73
580.00,36.37
579.00,37.18
578.00,38.15
577.00,39.26
576.00,40.47
575.00,41.73
574.00,42.98
573.00,44.20
572.00,45.37
571.00,46.51
570.00,47.63
569.00,48.75
568.00,49.86
567.00,50.96
566.00,52.05
565.00,53.12
564.00,54.18
563.00,55.23
562.00,56.27
561.00,57.29
560.00,58.26
559.00,59.16
558.00,59.97
557.00,60.67
556.00,61.28
555.00,61.83
554.00,62.35
553.00,62.87
552.00,63.41
551.00,63.99
550.00,64.58
