Created as New Dataset,Sample 004 By whitece Date Friday, December 06 2024
cm-1,%T
4000.00,98.53
3999.00,98.53
3998.00,98.53
3997.00,98.53
3996.00,98.53
3995.00,98.53
3994.00,98.53
3993.00,98.54
3992.00,98.54
3991.00,98.54
3990.00,98.54
3989.00,98.53
3988.00,98.52
3987.00,98.52
3986.00,98.51
3985.00,98.51
3984.00,98.50
3983.00,98.50
3982.00,98.51
3981.00,98.51
3980.00,98.50
3979.00,98.50
3978.00,98.49
3977.00,98.48
3976.00,98.46
3975.00,98.45
3974.00,98.44
3973.00,98.44
3972.00,98.45
3971.00,98.46
3970.00,98.48
3969.00,98.50
3968.00,98.52
3967.00,98.53
3966.00,98.54
3965.00,98.54
3964.00,98.54
3963.00,98.53
3962.00,98.52
3961.00,98.51
3960.00,98.50
3959.00,98.50
3958.00,98.50
3957.00,98.51
3956.00,98.52
3955.00,98.53
3954.00,98.55
3953.00,98.56
3952.00,98.57
3951.00,98.57
3950.00,98.56
3949.00,98.54
3948.00,98.52
3947.00,98.50
3946.00,98.48
3945.00,98.47
3944.00,98.48
3943.00,98.49
3942.00,98.50
3941.00,98.52
3940.00,98.53
3939.00,98.52
3938.00,98.51
3937.00,98.49
3936.00,98.47
3935.00,98.45
3934.00,98.44
3933.00,98.44
3932.00,98.46
3931.00,98.48
3930.00,98.50
3929.00,98.52
3928.00,98.53
3927.00,98.54
3926.00,98.55
3925.00,98.54
3924.00,98.53
3923.00,98.52
3922.00,98.50
3921.00,98.48
3920.00,98.45
3919.00,98.43
3918.00,98.41
3917.00,98.40
3916.00,98.39
3915.00,98.38
3914.00,98.38
3913.00,98.38
3912.00,98.39
3911.00,98.40
3910.00,98.41
3909.00,98.43
3908.00,98.46
3907.00,98.48
3906.00,98.50
3905.00,98.52
3904.00,98.53
3903.00,98.52
3902.00,98.51
3901.00,98.49
3900.00,98.48
3899.00,98.46
3898.00,98.45
3897.00,98.45
3896.00,98.44
3895.00,98.44
3894.00,98.43
3893.00,98.43
3892.00,98.43
3891.00,98.43
3890.00,98.43
3889.00,98.43
3888.00,98.44
3887.00,98.44
3886.00,98.44
3885.00,98.44
3884.00,98.43
3883.00,98.44
3882.00,98.44
3881.00,98.45
3880.00,98.46
3879.00,98.47
3878.00,98.48
3877.00,98.48
3876.00,98.49
3875.00,98.49
3874.00,98.48
3873.00,98.47
3872.00,98.46
3871.00,98.45
3870.00,98.43
3869.00,98.41
3868.00,98.40
3867.00,98.39
3866.00,98.39
3865.00,98.40
3864.00,98.42
3863.00,98.44
3862.00,98.46
3861.00,98.47
3860.00,98.47
3859.00,98.47
3858.00,98.46
3857.00,98.46
3856.00,98.46
3855.00,98.47
3854.00,98.47
3853.00,98.48
3852.00,98.48
3851.00,98.48
3850.00,98.47
3849.00,98.46
3848.00,98.44
3847.00,98.42
3846.00,98.41
3845.00,98.40
3844.00,98.39
3843.00,98.40
3842.00,98.41
3841.00,98.42
3840.00,98.43
3839.00,98.44
3838.00,98.45
3837.00,98.45
3836.00,98.45
3835.00,98.45
3834.00,98.45
3833.00,98.45
3832.00,98.45
3831.00,98.45
3830.00,98.44
3829.00,98.42
3828.00,98.41
3827.00,98.39
3826.00,98.37
3825.00,98.36
3824.00,98.35
3823.00,98.34
3822.00,98.35
3821.00,98.36
3820.00,98.39
3819.00,98.41
3818.00,98.44
3817.00,98.47
3816.00,98.50
3815.00,98.52
3814.00,98.53
3813.00,98.54
3812.00,98.53
3811.00,98.52
3810.00,98.50
3809.00,98.48
3808.00,98.46
3807.00,98.43
3806.00,98.41
3805.00,98.39
3804.00,98.38
3803.00,98.38
3802.00,98.38
3801.00,98.40
3800.00,98.41
3799.00,98.42
3798.00,98.42
3797.00,98.42
3796.00,98.41
3795.00,98.39
3794.00,98.38
3793.00,98.36
3792.00,98.36
3791.00,98.36
3790.00,98.37
3789.00,98.39
3788.00,98.40
3787.00,98.42
3786.00,98.43
3785.00,98.43
3784.00,98.42
3783.00,98.41
3782.00,98.39
3781.00,98.38
3780.00,98.36
3779.00,98.35
3778.00,98.34
3777.00,98.34
3776.00,98.34
3775.00,98.34
3774.00,98.35
3773.00,98.35
3772.00,98.35
3771.00,98.34
3770.00,98.33
3769.00,98.32
3768.00,98.31
3767.00,98.30
3766.00,98.29
3765.00,98.28
3764.00,98.28
3763.00,98.27
3762.00,98.27
3761.00,98.28
3760.00,98.28
3759.00,98.28
3758.00,98.29
3757.00,98.30
3756.00,98.31
3755.00,98.33
3754.00,98.35
3753.00,98.36
3752.00,98.38
3751.00,98.38
3750.00,98.38
3749.00,98.37
3748.00,98.36
3747.00,98.34
3746.00,98.32
3745.00,98.31
3744.00,98.30
3743.00,98.30
3742.00,98.30
3741.00,98.30
3740.00,98.31
3739.00,98.32
3738.00,98.33
3737.00,98.35
3736.00,98.37
3735.00,98.38
3734.00,98.39
3733.00,98.40
3732.00,98.40
3731.00,98.39
3730.00,98.37
3729.00,98.36
3728.00,98.35
3727.00,98.35
3726.00,98.35
3725.00,98.37
3724.00,98.38
3723.00,98.40
3722.00,98.41
3721.00,98.41
3720.00,98.41
3719.00,98.40
3718.00,98.39
3717.00,98.37
3716.00,98.34
3715.00,98.32
3714.00,98.30
3713.00,98.28
3712.00,98.26
3711.00,98.25
3710.00,98.24
3709.00,98.23
3708.00,98.22
3707.00,98.22
3706.00,98.23
3705.00,98.23
3704.00,98.24
3703.00,98.25
3702.00,98.26
3701.00,98.26
3700.00,98.26
3699.00,98.25
3698.00,98.23
3697.00,98.21
3696.00,98.19
3695.00,98.17
3694.00,98.15
3693.00,98.15
3692.00,98.15
3691.00,98.16
3690.00,98.18
3689.00,98.20
3688.00,98.22
3687.00,98.24
3686.00,98.25
3685.00,98.25
3684.00,98.25
3683.00,98.24
3682.00,98.24
3681.00,98.22
3680.00,98.21
3679.00,98.20
3678.00,98.19
3677.00,98.17
3676.00,98.15
3675.00,98.13
3674.00,98.11
3673.00,98.08
3672.00,98.04
3671.00,98.01
3670.00,97.97
3669.00,97.94
3668.00,97.91
3667.00,97.89
3666.00,97.88
3665.00,97.88
3664.00,97.89
3663.00,97.91
3662.00,97.94
3661.00,97.97
3660.00,97.99
3659.00,98.02
3658.00,98.03
3657.00,98.04
3656.00,98.04
3655.00,98.03
3654.00,98.02
3653.00,98.00
3652.00,97.99
3651.00,97.97
3650.00,97.95
3649.00,97.94
3648.00,97.93
3647.00,97.92
3646.00,97.91
3645.00,97.91
3644.00,97.92
3643.00,97.92
3642.00,97.93
3641.00,97.94
3640.00,97.94
3639.00,97.94
3638.00,97.93
3637.00,97.93
3636.00,97.93
3635.00,97.94
3634.00,97.95
3633.00,97.96
3632.00,97.97
3631.00,97.98
3630.00,97.99
3629.00,97.99
3628.00,98.00
3627.00,98.00
3626.00,98.01
3625.00,98.01
3624.00,98.02
3623.00,98.03
3622.00,98.04
3621.00,98.05
3620.00,98.06
3619.00,98.07
3618.00,98.08
3617.00,98.09
3616.00,98.09
3615.00,98.09
3614.00,98.08
3613.00,98.06
3612.00,98.05
3611.00,98.03
3610.00,98.02
3609.00,98.01
3608.00,98.00
3607.00,97.99
3606.00,97.98
3605.00,97.97
3604.00,97.94
3603.00,97.92
3602.00,97.89
3601.00,97.87
3600.00,97.85
3599.00,97.84
3598.00,97.84
3597.00,97.86
3596.00,97.88
3595.00,97.91
3594.00,97.94
3593.00,97.97
3592.00,97.99
3591.00,98.01
3590.00,98.02
3589.00,98.02
3588.00,98.01
3587.00,98.00
3586.00,97.97
3585.00,97.95
3584.00,97.92
3583.00,97.89
3582.00,97.86
3581.00,97.84
3580.00,97.82
3579.00,97.81
3578.00,97.82
3577.00,97.83
3576.00,97.84
3575.00,97.87
3574.00,97.89
3573.00,97.92
3572.00,97.94
3571.00,97.96
3570.00,97.98
3569.00,97.98
3568.00,97.98
3567.00,97.96
3566.00,97.95
3565.00,97.93
3564.00,97.91
3563.00,97.90
3562.00,97.89
3561.00,97.88
3560.00,97.88
3559.00,97.88
3558.00,97.87
3557.00,97.87
3556.00,97.87
3555.00,97.87
3554.00,97.87
3553.00,97.87
3552.00,97.88
3551.00,97.88
3550.00,97.89
3549.00,97.88
3548.00,97.88
3547.00,97.87
3546.00,97.85
3545.00,97.84
3544.00,97.82
3543.00,97.81
3542.00,97.80
3541.00,97.80
3540.00,97.80
3539.00,97.80
3538.00,97.81
3537.00,97.82
3536.00,97.82
3535.00,97.82
3534.00,97.81
3533.00,97.79
3532.00,97.78
3531.00,97.75
3530.00,97.73
3529.00,97.72
3528.00,97.71
3527.00,97.70
3526.00,97.71
3525.00,97.71
3524.00,97.72
3523.00,97.74
3522.00,97.75
3521.00,97.77
3520.00,97.79
3519.00,97.81
3518.00,97.83
3517.00,97.84
3516.00,97.86
3515.00,97.86
3514.00,97.87
3513.00,97.86
3512.00,97.86
3511.00,97.85
3510.00,97.84
3509.00,97.82
3508.00,97.81
3507.00,97.80
3506.00,97.78
3505.00,97.76
3504.00,97.74
3503.00,97.73
3502.00,97.71
3501.00,97.70
3500.00,97.69
3499.00,97.67
3498.00,97.66
3497.00,97.66
3496.00,97.65
3495.00,97.64
3494.00,97.64
3493.00,97.65
3492.00,97.66
3491.00,97.68
3490.00,97.71
3489.00,97.73
3488.00,97.76
3487.00,97.77
3486.00,97.77
3485.00,97.77
3484.00,97.75
3483.00,97.73
3482.00,97.70
3481.00,97.68
3480.00,97.67
3479.00,97.66
3478.00,97.67
3477.00,97.67
3476.00,97.68
3475.00,97.68
3474.00,97.68
3473.00,97.67
3472.00,97.66
3471.00,97.66
3470.00,97.65
3469.00,97.66
3468.00,97.67
3467.00,97.69
3466.00,97.71
3465.00,97.73
3464.00,97.75
3463.00,97.77
3462.00,97.78
3461.00,97.79
3460.00,97.79
3459.00,97.79
3458.00,97.78
3457.00,97.76
3456.00,97.74
3455.00,97.72
3454.00,97.70
3453.00,97.68
3452.00,97.66
3451.00,97.65
3450.00,97.64
3449.00,97.63
3448.00,97.62
3447.00,97.62
3446.00,97.63
3445.00,97.64
3444.00,97.66
3443.00,97.67
3442.00,97.68
3441.00,97.69
3440.00,97.69
3439.00,97.69
3438.00,97.69
3437.00,97.68
3436.00,97.68
3435.00,97.68
3434.00,97.68
3433.00,97.68
3432.00,97.68
3431.00,97.67
3430.00,97.66
3429.00,97.65
3428.00,97.63
3427.00,97.61
3426.00,97.60
3425.00,97.60
3424.00,97.60
3423.00,97.60
3422.00,97.61
3421.00,97.62
3420.00,97.62
3419.00,97.63
3418.00,97.63
3417.00,97.63
3416.00,97.64
3415.00,97.65
3414.00,97.66
3413.00,97.68
3412.00,97.70
3411.00,97.72
3410.00,97.74
3409.00,97.74
3408.00,97.74
3407.00,97.73
3406.00,97.71
3405.00,97.70
3404.00,97.68
3403.00,97.67
3402.00,97.67
3401.00,97.67
3400.00,97.66
3399.00,97.66
3398.00,97.64
3397.00,97.62
3396.00,97.60
3395.00,97.57
3394.00,97.54
3393.00,97.53
3392.00,97.52
3391.00,97.54
3390.00,97.56
3389.00,97.59
3388.00,97.63
3387.00,97.66
3386.00,97.69
3385.00,97.69
3384.00,97.68
3383.00,97.66
3382.00,97.64
3381.00,97.61
3380.00,97.60
3379.00,97.59
3378.00,97.60
3377.00,97.61
3376.00,97.63
3375.00,97.64
3374.00,97.65
3373.00,97.65
3372.00,97.65
3371.00,97.65
3370.00,97.65
3369.00,97.65
3368.00,97.65
3367.00,97.65
3366.00,97.66
3365.00,97.67
3364.00,97.68
3363.00,97.68
3362.00,97.69
3361.00,97.68
3360.00,97.68
3359.00,97.66
3358.00,97.64
3357.00,97.62
3356.00,97.59
3355.00,97.57
3354.00,97.55
3353.00,97.54
3352.00,97.55
3351.00,97.56
3350.00,97.58
3349.00,97.60
3348.00,97.62
3347.00,97.63
3346.00,97.63
3345.00,97.63
3344.00,97.62
3343.00,97.61
3342.00,97.60
3341.00,97.59
3340.00,97.58
3339.00,97.57
3338.00,97.57
3337.00,97.57
3336.00,97.58
3335.00,97.58
3334.00,97.58
3333.00,97.57
3332.00,97.57
3331.00,97.56
3330.00,97.56
3329.00,97.56
3328.00,97.56
3327.00,97.56
3326.00,97.57
3325.00,97.58
3324.00,97.59
3323.00,97.61
3322.00,97.62
3321.00,97.64
3320.00,97.65
3319.00,97.66
3318.00,97.66
3317.00,97.65
3316.00,97.65
3315.00,97.63
3314.00,97.62
3313.00,97.61
3312.00,97.59
3311.00,97.58
3310.00,97.57
3309.00,97.56
3308.00,97.55
3307.00,97.54
3306.00,97.53
3305.00,97.53
3304.00,97.53
3303.00,97.54
3302.00,97.55
3301.00,97.56
3300.00,97.57
3299.00,97.58
3298.00,97.60
3297.00,97.61
3296.00,97.62
3295.00,97.63
3294.00,97.64
3293.00,97.65
3292.00,97.65
3291.00,97.65
3290.00,97.65
3289.00,97.64
3288.00,97.62
3287.00,97.60
3286.00,97.58
3285.00,97.56
3284.00,97.54
3283.00,97.53
3282.00,97.52
3281.00,97.52
3280.00,97.52
3279.00,97.53
3278.00,97.54
3277.00,97.55
3276.00,97.56
3275.00,97.57
3274.00,97.58
3273.00,97.58
3272.00,97.58
3271.00,97.59
3270.00,97.59
3269.00,97.59
3268.00,97.60
3267.00,97.61
3266.00,97.62
3265.00,97.63
3264.00,97.63
3263.00,97.64
3262.00,97.64
3261.00,97.64
3260.00,97.63
3259.00,97.63
3258.00,97.62
3257.00,97.62
3256.00,97.62
3255.00,97.63
3254.00,97.64
3253.00,97.64
3252.00,97.65
3251.00,97.65
3250.00,97.64
3249.00,97.64
3248.00,97.63
3247.00,97.62
3246.00,97.61
3245.00,97.60
3244.00,97.59
3243.00,97.58
3242.00,97.58
3241.00,97.59
3240.00,97.60
3239.00,97.61
3238.00,97.63
3237.00,97.64
3236.00,97.64
3235.00,97.63
3234.00,97.62
3233.00,97.60
3232.00,97.58
3231.00,97.56
3230.00,97.54
3229.00,97.54
3228.00,97.54
3227.00,97.55
3226.00,97.57
3225.00,97.58
3224.00,97.60
3223.00,97.60
3222.00,97.61
3221.00,97.61
3220.00,97.61
3219.00,97.60
3218.00,97.59
3217.00,97.58
3216.00,97.57
3215.00,97.56
3214.00,97.55
3213.00,97.54
3212.00,97.54
3211.00,97.54
3210.00,97.55
3209.00,97.55
3208.00,97.56
3207.00,97.57
3206.00,97.58
3205.00,97.58
3204.00,97.58
3203.00,97.58
3202.00,97.58
3201.00,97.58
3200.00,97.58
3199.00,97.58
3198.00,97.58
3197.00,97.59
3196.00,97.61
3195.00,97.63
3194.00,97.66
3193.00,97.69
3192.00,97.71
3191.00,97.73
3190.00,97.75
3189.00,97.75
3188.00,97.75
3187.00,97.74
3186.00,97.74
3185.00,97.73
3184.00,97.72
3183.00,97.71
3182.00,97.71
3181.00,97.71
3180.00,97.70
3179.00,97.70
3178.00,97.70
3177.00,97.70
3176.00,97.69
3175.00,97.68
3174.00,97.67
3173.00,97.66
3172.00,97.66
3171.00,97.65
3170.00,97.64
3169.00,97.64
3168.00,97.63
3167.00,97.63
3166.00,97.63
3165.00,97.62
3164.00,97.62
3163.00,97.61
3162.00,97.61
3161.00,97.60
3160.00,97.60
3159.00,97.59
3158.00,97.59
3157.00,97.58
3156.00,97.59
3155.00,97.59
3154.00,97.61
3153.00,97.63
3152.00,97.65
3151.00,97.68
3150.00,97.70
3149.00,97.72
3148.00,97.73
3147.00,97.73
3146.00,97.73
3145.00,97.72
3144.00,97.71
3143.00,97.69
3142.00,97.67
3141.00,97.66
3140.00,97.65
3139.00,97.64
3138.00,97.64
3137.00,97.64
3136.00,97.64
3135.00,97.65
3134.00,97.65
3133.00,97.66
3132.00,97.67
3131.00,97.68
3130.00,97.69
3129.00,97.71
3128.00,97.72
3127.00,97.73
3126.00,97.72
3125.00,97.71
3124.00,97.69
3123.00,97.66
3122.00,97.64
3121.00,97.62
3120.00,97.61
3119.00,97.61
3118.00,97.62
3117.00,97.64
3116.00,97.66
3115.00,97.68
3114.00,97.69
3113.00,97.71
3112.00,97.72
3111.00,97.72
3110.00,97.72
3109.00,97.72
3108.00,97.71
3107.00,97.71
3106.00,97.70
3105.00,97.70
3104.00,97.70
3103.00,97.70
3102.00,97.70
3101.00,97.71
3100.00,97.72
3099.00,97.74
3098.00,97.76
3097.00,97.78
3096.00,97.79
3095.00,97.80
3094.00,97.79
3093.00,97.78
3092.00,97.76
3091.00,97.74
3090.00,97.71
3089.00,97.69
3088.00,97.68
3087.00,97.67
3086.00,97.67
3085.00,97.67
3084.00,97.68
3083.00,97.69
3082.00,97.70
3081.00,97.70
3080.00,97.71
3079.00,97.71
3078.00,97.71
3077.00,97.70
3076.00,97.69
3075.00,97.67
3074.00,97.66
3073.00,97.65
3072.00,97.65
3071.00,97.65
3070.00,97.66
3069.00,97.66
3068.00,97.67
3067.00,97.68
3066.00,97.69
3065.00,97.70
3064.00,97.71
3063.00,97.72
3062.00,97.73
3061.00,97.73
3060.00,97.74
3059.00,97.75
3058.00,97.75
3057.00,97.76
3056.00,97.76
3055.00,97.77
3054.00,97.77
3053.00,97.77
3052.00,97.76
3051.00,97.76
3050.00,97.75
3049.00,97.74
3048.00,97.74
3047.00,97.73
3046.00,97.73
3045.00,97.72
3044.00,97.72
3043.00,97.72
3042.00,97.73
3041.00,97.73
3040.00,97.74
3039.00,97.75
3038.00,97.76
3037.00,97.76
3036.00,97.77
3035.00,97.77
3034.00,97.78
3033.00,97.78
3032.00,97.79
3031.00,97.80
3030.00,97.80
3029.00,97.80
3028.00,97.80
3027.00,97.79
3026.00,97.78
3025.00,97.76
3024.00,97.75
3023.00,97.75
3022.00,97.74
3021.00,97.74
3020.00,97.75
3019.00,97.75
3018.00,97.75
3017.00,97.74
3016.00,97.74
3015.00,97.73
3014.00,97.71
3013.00,97.70
3012.00,97.69
3011.00,97.68
3010.00,97.67
3009.00,97.68
3008.00,97.69
3007.00,97.70
3006.00,97.73
3005.00,97.75
3004.00,97.77
3003.00,97.79
3002.00,97.81
3001.00,97.81
3000.00,97.81
2999.00,97.81
2998.00,97.80
2997.00,97.79
2996.00,97.78
2995.00,97.78
2994.00,97.77
2993.00,97.78
2992.00,97.78
2991.00,97.79
2990.00,97.79
2989.00,97.79
2988.00,97.79
2987.00,97.79
2986.00,97.78
2985.00,97.78
2984.00,97.78
2983.00,97.78
2982.00,97.78
2981.00,97.79
2980.00,97.80
2979.00,97.80
2978.00,97.80
2977.00,97.80
2976.00,97.80
2975.00,97.80
2974.00,97.81
2973.00,97.81
2972.00,97.82
2971.00,97.83
2970.00,97.84
2969.00,97.85
2968.00,97.86
2967.00,97.87
2966.00,97.88
2965.00,97.88
2964.00,97.88
2963.00,97.87
2962.00,97.86
2961.00,97.85
2960.00,97.84
2959.00,97.84
2958.00,97.83
2957.00,97.83
2956.00,97.83
2955.00,97.83
2954.00,97.83
2953.00,97.83
2952.00,97.84
2951.00,97.84
2950.00,97.84
2949.00,97.84
2948.00,97.84
2947.00,97.84
2946.00,97.83
2945.00,97.83
2944.00,97.83
2943.00,97.83
2942.00,97.83
2941.00,97.83
2940.00,97.83
2939.00,97.82
2938.00,97.82
2937.00,97.82
2936.00,97.83
2935.00,97.84
2934.00,97.85
2933.00,97.87
2932.00,97.88
2931.00,97.88
2930.00,97.88
2929.00,97.88
2928.00,97.87
2927.00,97.86
2926.00,97.86
2925.00,97.86
2924.00,97.87
2923.00,97.87
2922.00,97.88
2921.00,97.88
2920.00,97.89
2919.00,97.89
2918.00,97.89
2917.00,97.90
2916.00,97.90
2915.00,97.90
2914.00,97.90
2913.00,97.89
2912.00,97.89
2911.00,97.88
2910.00,97.88
2909.00,97.88
2908.00,97.88
2907.00,97.88
2906.00,97.89
2905.00,97.90
2904.00,97.90
2903.00,97.90
2902.00,97.91
2901.00,97.90
2900.00,97.90
2899.00,97.89
2898.00,97.87
2897.00,97.86
2896.00,97.84
2895.00,97.83
2894.00,97.82
2893.00,97.81
2892.00,97.81
2891.00,97.81
2890.00,97.82
2889.00,97.82
2888.00,97.83
2887.00,97.83
2886.00,97.83
2885.00,97.83
2884.00,97.82
2883.00,97.82
2882.00,97.82
2881.00,97.82
2880.00,97.82
2879.00,97.82
2878.00,97.83
2877.00,97.84
2876.00,97.85
2875.00,97.87
2874.00,97.89
2873.00,97.90
2872.00,97.91
2871.00,97.92
2870.00,97.93
2869.00,97.93
2868.00,97.92
2867.00,97.92
2866.00,97.91
2865.00,97.91
2864.00,97.90
2863.00,97.91
2862.00,97.91
2861.00,97.92
2860.00,97.94
2859.00,97.95
2858.00,97.96
2857.00,97.96
2856.00,97.96
2855.00,97.96
2854.00,97.94
2853.00,97.93
2852.00,97.92
2851.00,97.91
2850.00,97.91
2849.00,97.91
2848.00,97.91
2847.00,97.91
2846.00,97.90
2845.00,97.89
2844.00,97.87
2843.00,97.85
2842.00,97.83
2841.00,97.81
2840.00,97.80
2839.00,97.80
2838.00,97.80
2837.00,97.81
2836.00,97.82
2835.00,97.82
2834.00,97.82
2833.00,97.82
2832.00,97.81
2831.00,97.80
2830.00,97.79
2829.00,97.78
2828.00,97.78
2827.00,97.78
2826.00,97.78
2825.00,97.80
2824.00,97.81
2823.00,97.83
2822.00,97.85
2821.00,97.87
2820.00,97.88
2819.00,97.89
2818.00,97.89
2817.00,97.89
2816.00,97.89
2815.00,97.89
2814.00,97.88
2813.00,97.88
2812.00,97.88
2811.00,97.88
2810.00,97.88
2809.00,97.89
2808.00,97.89
2807.00,97.89
2806.00,97.90
2805.00,97.90
2804.00,97.90
2803.00,97.90
2802.00,97.90
2801.00,97.90
2800.00,97.90
2799.00,97.89
2798.00,97.89
2797.00,97.89
2796.00,97.89
2795.00,97.89
2794.00,97.89
2793.00,97.89
2792.00,97.88
2791.00,97.87
2790.00,97.87
2789.00,97.87
2788.00,97.87
2787.00,97.87
2786.00,97.88
2785.00,97.88
2784.00,97.89
2783.00,97.90
2782.00,97.92
2781.00,97.93
2780.00,97.94
2779.00,97.95
2778.00,97.95
2777.00,97.96
2776.00,97.95
2775.00,97.95
2774.00,97.94
2773.00,97.92
2772.00,97.91
2771.00,97.90
2770.00,97.90
2769.00,97.90
2768.00,97.90
2767.00,97.90
2766.00,97.90
2765.00,97.90
2764.00,97.90
2763.00,97.90
2762.00,97.90
2761.00,97.90
2760.00,97.90
2759.00,97.91
2758.00,97.91
2757.00,97.91
2756.00,97.91
2755.00,97.91
2754.00,97.90
2753.00,97.89
2752.00,97.88
2751.00,97.88
2750.00,97.87
2749.00,97.87
2748.00,97.87
2747.00,97.87
2746.00,97.86
2745.00,97.86
2744.00,97.86
2743.00,97.86
2742.00,97.85
2741.00,97.85
2740.00,97.85
2739.00,97.85
2738.00,97.85
2737.00,97.85
2736.00,97.85
2735.00,97.85
2734.00,97.86
2733.00,97.86
2732.00,97.86
2731.00,97.86
2730.00,97.86
2729.00,97.86
2728.00,97.86
2727.00,97.86
2726.00,97.86
2725.00,97.86
2724.00,97.86
2723.00,97.86
2722.00,97.86
2721.00,97.86
2720.00,97.86
2719.00,97.86
2718.00,97.86
2717.00,97.86
2716.00,97.86
2715.00,97.85
2714.00,97.85
2713.00,97.84
2712.00,97.83
2711.00,97.82
2710.00,97.82
2709.00,97.82
2708.00,97.82
2707.00,97.83
2706.00,97.84
2705.00,97.86
2704.00,97.87
2703.00,97.88
2702.00,97.89
2701.00,97.89
2700.00,97.90
2699.00,97.90
2698.00,97.89
2697.00,97.89
2696.00,97.88
2695.00,97.87
2694.00,97.86
2693.00,97.85
2692.00,97.85
2691.00,97.85
2690.00,97.85
2689.00,97.86
2688.00,97.87
2687.00,97.88
2686.00,97.89
2685.00,97.89
2684.00,97.90
2683.00,97.90
2682.00,97.90
2681.00,97.90
2680.00,97.89
2679.00,97.89
2678.00,97.89
2677.00,97.90
2676.00,97.90
2675.00,97.90
2674.00,97.91
2673.00,97.91
2672.00,97.91
2671.00,97.91
2670.00,97.89
2669.00,97.88
2668.00,97.86
2667.00,97.84
2666.00,97.82
2665.00,97.80
2664.00,97.78
2663.00,97.77
2662.00,97.75
2661.00,97.74
2660.00,97.73
2659.00,97.72
2658.00,97.72
2657.00,97.71
2656.00,97.71
2655.00,97.70
2654.00,97.69
2653.00,97.69
2652.00,97.68
2651.00,97.67
2650.00,97.66
2649.00,97.65
2648.00,97.65
2647.00,97.65
2646.00,97.65
2645.00,97.66
2644.00,97.67
2643.00,97.68
2642.00,97.69
2641.00,97.70
2640.00,97.71
2639.00,97.72
2638.00,97.72
2637.00,97.72
2636.00,97.72
2635.00,97.72
2634.00,97.72
2633.00,97.72
2632.00,97.72
2631.00,97.72
2630.00,97.72
2629.00,97.71
2628.00,97.70
2627.00,97.69
2626.00,97.68
2625.00,97.67
2624.00,97.66
2623.00,97.65
2622.00,97.65
2621.00,97.65
2620.00,97.65
2619.00,97.66
2618.00,97.67
2617.00,97.68
2616.00,97.70
2615.00,97.71
2614.00,97.72
2613.00,97.74
2612.00,97.74
2611.00,97.75
2610.00,97.75
2609.00,97.75
2608.00,97.75
2607.00,97.75
2606.00,97.74
2605.00,97.74
2604.00,97.74
2603.00,97.74
2602.00,97.74
2601.00,97.75
2600.00,97.75
2599.00,97.76
2598.00,97.77
2597.00,97.77
2596.00,97.77
2595.00,97.76
2594.00,97.76
2593.00,97.76
2592.00,97.76
2591.00,97.77
2590.00,97.77
2589.00,97.77
2588.00,97.77
2587.00,97.77
2586.00,97.75
2585.00,97.74
2584.00,97.73
2583.00,97.72
2582.00,97.72
2581.00,97.72
2580.00,97.74
2579.00,97.75
2578.00,97.76
2577.00,97.77
2576.00,97.78
2575.00,97.78
2574.00,97.78
2573.00,97.77
2572.00,97.76
2571.00,97.74
2570.00,97.73
2569.00,97.71
2568.00,97.70
2567.00,97.70
2566.00,97.70
2565.00,97.71
2564.00,97.72
2563.00,97.74
2562.00,97.76
2561.00,97.78
2560.00,97.79
2559.00,97.80
2558.00,97.80
2557.00,97.80
2556.00,97.80
2555.00,97.79
2554.00,97.79
2553.00,97.79
2552.00,97.80
2551.00,97.81
2550.00,97.81
2549.00,97.81
2548.00,97.80
2547.00,97.78
2546.00,97.76
2545.00,97.75
2544.00,97.74
2543.00,97.74
2542.00,97.75
2541.00,97.77
2540.00,97.79
2539.00,97.82
2538.00,97.83
2537.00,97.84
2536.00,97.84
2535.00,97.84
2534.00,97.84
2533.00,97.84
2532.00,97.85
2531.00,97.86
2530.00,97.88
2529.00,97.89
2528.00,97.90
2527.00,97.90
2526.00,97.89
2525.00,97.87
2524.00,97.86
2523.00,97.84
2522.00,97.82
2521.00,97.82
2520.00,97.82
2519.00,97.82
2518.00,97.83
2517.00,97.85
2516.00,97.86
2515.00,97.87
2514.00,97.88
2513.00,97.88
2512.00,97.87
2511.00,97.87
2510.00,97.87
2509.00,97.87
2508.00,97.87
2507.00,97.87
2506.00,97.87
2505.00,97.87
2504.00,97.87
2503.00,97.87
2502.00,97.87
2501.00,97.88
2500.00,97.88
2499.00,97.88
2498.00,97.89
2497.00,97.89
2496.00,97.89
2495.00,97.90
2494.00,97.90
2493.00,97.89
2492.00,97.89
2491.00,97.88
2490.00,97.87
2489.00,97.87
2488.00,97.86
2487.00,97.86
2486.00,97.87
2485.00,97.88
2484.00,97.89
2483.00,97.89
2482.00,97.89
2481.00,97.88
2480.00,97.85
2479.00,97.82
2478.00,97.80
2477.00,97.77
2476.00,97.76
2475.00,97.76
2474.00,97.77
2473.00,97.79
2472.00,97.80
2471.00,97.82
2470.00,97.83
2469.00,97.84
2468.00,97.84
2467.00,97.84
2466.00,97.85
2465.00,97.85
2464.00,97.86
2463.00,97.86
2462.00,97.86
2461.00,97.86
2460.00,97.86
2459.00,97.86
2458.00,97.85
2457.00,97.84
2456.00,97.83
2455.00,97.82
2454.00,97.82
2453.00,97.81
2452.00,97.81
2451.00,97.81
2450.00,97.81
2449.00,97.81
2448.00,97.80
2447.00,97.79
2446.00,97.78
2445.00,97.77
2444.00,97.76
2443.00,97.76
2442.00,97.76
2441.00,97.77
2440.00,97.78
2439.00,97.80
2438.00,97.81
2437.00,97.82
2436.00,97.83
2435.00,97.84
2434.00,97.84
2433.00,97.84
2432.00,97.84
2431.00,97.84
2430.00,97.83
2429.00,97.82
2428.00,97.81
2427.00,97.80
2426.00,97.79
2425.00,97.78
2424.00,97.78
2423.00,97.78
2422.00,97.79
2421.00,97.80
2420.00,97.81
2419.00,97.83
2418.00,97.85
2417.00,97.86
2416.00,97.87
2415.00,97.88
2414.00,97.88
2413.00,97.88
2412.00,97.87
2411.00,97.88
2410.00,97.88
2409.00,97.89
2408.00,97.90
2407.00,97.91
2406.00,97.92
2405.00,97.92
2404.00,97.92
2403.00,97.92
2402.00,97.92
2401.00,97.92
2400.00,97.93
2399.00,97.94
2398.00,97.95
2397.00,97.96
2396.00,97.96
2395.00,97.95
2394.00,97.94
2393.00,97.93
2392.00,97.92
2391.00,97.91
2390.00,97.91
2389.00,97.91
2388.00,97.92
2387.00,97.94
2386.00,97.95
2385.00,97.96
2384.00,97.97
2383.00,97.97
2382.00,97.97
2381.00,97.97
2380.00,97.97
2379.00,97.96
2378.00,97.96
2377.00,97.96
2376.00,97.95
2375.00,97.95
2374.00,97.94
2373.00,97.92
2372.00,97.91
2371.00,97.89
2370.00,97.87
2369.00,97.86
2368.00,97.85
2367.00,97.84
2366.00,97.84
2365.00,97.84
2364.00,97.84
2363.00,97.84
2362.00,97.84
2361.00,97.84
2360.00,97.84
2359.00,97.83
2358.00,97.83
2357.00,97.82
2356.00,97.82
2355.00,97.82
2354.00,97.82
2353.00,97.82
2352.00,97.83
2351.00,97.83
2350.00,97.83
2349.00,97.83
2348.00,97.83
2347.00,97.83
2346.00,97.82
2345.00,97.82
2344.00,97.81
2343.00,97.80
2342.00,97.80
2341.00,97.79
2340.00,97.79
2339.00,97.78
2338.00,97.77
2337.00,97.77
2336.00,97.76
2335.00,97.75
2334.00,97.73
2333.00,97.72
2332.00,97.71
2331.00,97.69
2330.00,97.66
2329.00,97.62
2328.00,97.57
2327.00,97.52
2326.00,97.47
2325.00,97.42
2324.00,97.38
2323.00,97.37
2322.00,97.36
2321.00,97.38
2320.00,97.41
2319.00,97.44
2318.00,97.48
2317.00,97.51
2316.00,97.54
2315.00,97.56
2314.00,97.58
2313.00,97.59
2312.00,97.60
2311.00,97.61
2310.00,97.61
2309.00,97.60
2308.00,97.59
2307.00,97.58
2306.00,97.58
2305.00,97.58
2304.00,97.58
2303.00,97.58
2302.00,97.58
2301.00,97.58
2300.00,97.58
2299.00,97.57
2298.00,97.56
2297.00,97.54
2296.00,97.52
2295.00,97.50
2294.00,97.47
2293.00,97.44
2292.00,97.41
2291.00,97.39
2290.00,97.37
2289.00,97.37
2288.00,97.37
2287.00,97.38
2286.00,97.40
2285.00,97.41
2284.00,97.42
2283.00,97.41
2282.00,97.41
2281.00,97.40
2280.00,97.39
2279.00,97.39
2278.00,97.39
2277.00,97.39
2276.00,97.40
2275.00,97.42
2274.00,97.43
2273.00,97.45
2272.00,97.47
2271.00,97.49
2270.00,97.50
2269.00,97.52
2268.00,97.53
2267.00,97.53
2266.00,97.53
2265.00,97.52
2264.00,97.51
2263.00,97.50
2262.00,97.50
2261.00,97.49
2260.00,97.49
2259.00,97.50
2258.00,97.50
2257.00,97.51
2256.00,97.51
2255.00,97.51
2254.00,97.52
2253.00,97.52
2252.00,97.52
2251.00,97.53
2250.00,97.53
2249.00,97.55
2248.00,97.57
2247.00,97.59
2246.00,97.61
2245.00,97.62
2244.00,97.63
2243.00,97.63
2242.00,97.63
2241.00,97.61
2240.00,97.60
2239.00,97.59
2238.00,97.59
2237.00,97.60
2236.00,97.61
2235.00,97.62
2234.00,97.63
2233.00,97.64
2232.00,97.63
2231.00,97.63
2230.00,97.61
2229.00,97.59
2228.00,97.58
2227.00,97.57
2226.00,97.56
2225.00,97.56
2224.00,97.57
2223.00,97.57
2222.00,97.58
2221.00,97.58
2220.00,97.58
2219.00,97.57
2218.00,97.56
2217.00,97.55
2216.00,97.54
2215.00,97.53
2214.00,97.53
2213.00,97.52
2212.00,97.52
2211.00,97.51
2210.00,97.50
2209.00,97.48
2208.00,97.47
2207.00,97.46
2206.00,97.46
2205.00,97.46
2204.00,97.47
2203.00,97.48
2202.00,97.49
2201.00,97.50
2200.00,97.51
2199.00,97.52
2198.00,97.54
2197.00,97.55
2196.00,97.58
2195.00,97.60
2194.00,97.62
2193.00,97.63
2192.00,97.62
2191.00,97.60
2190.00,97.57
2189.00,97.52
2188.00,97.47
2187.00,97.43
2186.00,97.40
2185.00,97.37
2184.00,97.37
2183.00,97.38
2182.00,97.40
2181.00,97.44
2180.00,97.49
2179.00,97.54
2178.00,97.59
2177.00,97.64
2176.00,97.67
2175.00,97.69
2174.00,97.67
2173.00,97.63
2172.00,97.55
2171.00,97.44
2170.00,97.32
2169.00,97.20
2168.00,97.08
2167.00,97.00
2166.00,96.95
2165.00,96.97
2164.00,97.04
2163.00,97.17
2162.00,97.36
2161.00,97.58
2160.00,97.81
2159.00,98.02
2158.00,98.19
2157.00,98.31
2156.00,98.38
2155.00,98.38
2154.00,98.35
2153.00,98.29
2152.00,98.22
2151.00,98.15
2150.00,98.09
2149.00,98.05
2148.00,98.01
2147.00,97.99
2146.00,97.98
2145.00,97.98
2144.00,97.98
2143.00,97.98
2142.00,97.99
2141.00,98.00
2140.00,98.01
2139.00,98.04
2138.00,98.06
2137.00,98.09
2136.00,98.13
2135.00,98.15
2134.00,98.18
2133.00,98.19
2132.00,98.19
2131.00,98.18
2130.00,98.17
2129.00,98.14
2128.00,98.10
2127.00,98.05
2126.00,98.00
2125.00,97.95
2124.00,97.90
2123.00,97.85
2122.00,97.80
2121.00,97.75
2120.00,97.71
2119.00,97.68
2118.00,97.65
2117.00,97.63
2116.00,97.62
2115.00,97.61
2114.00,97.61
2113.00,97.61
2112.00,97.60
2111.00,97.60
2110.00,97.59
2109.00,97.57
2108.00,97.56
2107.00,97.55
2106.00,97.55
2105.00,97.55
2104.00,97.55
2103.00,97.55
2102.00,97.55
2101.00,97.56
2100.00,97.57
2099.00,97.58
2098.00,97.59
2097.00,97.61
2096.00,97.62
2095.00,97.63
2094.00,97.63
2093.00,97.62
2092.00,97.60
2091.00,97.57
2090.00,97.54
2089.00,97.50
2088.00,97.47
2087.00,97.45
2086.00,97.43
2085.00,97.42
2084.00,97.41
2083.00,97.41
2082.00,97.41
2081.00,97.42
2080.00,97.43
2079.00,97.43
2078.00,97.44
2077.00,97.44
2076.00,97.44
2075.00,97.44
2074.00,97.43
2073.00,97.42
2072.00,97.41
2071.00,97.41
2070.00,97.41
2069.00,97.42
2068.00,97.43
2067.00,97.45
2066.00,97.45
2065.00,97.46
2064.00,97.46
2063.00,97.45
2062.00,97.44
2061.00,97.42
2060.00,97.40
2059.00,97.38
2058.00,97.36
2057.00,97.34
2056.00,97.32
2055.00,97.30
2054.00,97.28
2053.00,97.27
2052.00,97.27
2051.00,97.26
2050.00,97.27
2049.00,97.27
2048.00,97.27
2047.00,97.27
2046.00,97.26
2045.00,97.24
2044.00,97.22
2043.00,97.18
2042.00,97.15
2041.00,97.12
2040.00,97.11
2039.00,97.11
2038.00,97.13
2037.00,97.16
2036.00,97.21
2035.00,97.26
2034.00,97.30
2033.00,97.35
2032.00,97.38
2031.00,97.40
2030.00,97.42
2029.00,97.43
2028.00,97.43
2027.00,97.43
2026.00,97.42
2025.00,97.41
2024.00,97.40
2023.00,97.38
2022.00,97.35
2021.00,97.32
2020.00,97.29
2019.00,97.26
2018.00,97.23
2017.00,97.21
2016.00,97.20
2015.00,97.21
2014.00,97.22
2013.00,97.24
2012.00,97.25
2011.00,97.26
2010.00,97.25
2009.00,97.24
2008.00,97.22
2007.00,97.19
2006.00,97.17
2005.00,97.15
2004.00,97.14
2003.00,97.13
2002.00,97.12
2001.00,97.12
2000.00,97.13
1999.00,97.14
1998.00,97.16
1997.00,97.18
1996.00,97.22
1995.00,97.25
1994.00,97.27
1993.00,97.28
1992.00,97.27
1991.00,97.24
1990.00,97.20
1989.00,97.14
1988.00,97.08
1987.00,97.00
1986.00,96.93
1985.00,96.85
1984.00,96.78
1983.00,96.72
1982.00,96.69
1981.00,96.69
1980.00,96.73
1979.00,96.81
1978.00,96.92
1977.00,97.04
1976.00,97.15
1975.00,97.24
1974.00,97.29
1973.00,97.32
1972.00,97.31
1971.00,97.30
1970.00,97.28
1969.00,97.26
1968.00,97.24
1967.00,97.24
1966.00,97.25
1965.00,97.26
1964.00,97.29
1963.00,97.32
1962.00,97.36
1961.00,97.41
1960.00,97.44
1959.00,97.47
1958.00,97.49
1957.00,97.50
1956.00,97.50
1955.00,97.49
1954.00,97.48
1953.00,97.47
1952.00,97.46
1951.00,97.45
1950.00,97.44
1949.00,97.44
1948.00,97.43
1947.00,97.42
1946.00,97.41
1945.00,97.40
1944.00,97.38
1943.00,97.37
1942.00,97.36
1941.00,97.35
1940.00,97.35
1939.00,97.35
1938.00,97.35
1937.00,97.35
1936.00,97.36
1935.00,97.37
1934.00,97.38
1933.00,97.38
1932.00,97.38
1931.00,97.36
1930.00,97.34
1929.00,97.31
1928.00,97.27
1927.00,97.24
1926.00,97.20
1925.00,97.18
1924.00,97.16
1923.00,97.16
1922.00,97.16
1921.00,97.16
1920.00,97.17
1919.00,97.17
1918.00,97.17
1917.00,97.16
1916.00,97.16
1915.00,97.15
1914.00,97.14
1913.00,97.13
1912.00,97.13
1911.00,97.12
1910.00,97.12
1909.00,97.12
1908.00,97.12
1907.00,97.12
1906.00,97.12
1905.00,97.11
1904.00,97.10
1903.00,97.09
1902.00,97.08
1901.00,97.07
1900.00,97.06
1899.00,97.05
1898.00,97.04
1897.00,97.04
1896.00,97.03
1895.00,97.03
1894.00,97.02
1893.00,97.02
1892.00,97.00
1891.00,96.99
1890.00,96.97
1889.00,96.95
1888.00,96.93
1887.00,96.91
1886.00,96.90
1885.00,96.89
1884.00,96.89
1883.00,96.89
1882.00,96.89
1881.00,96.89
1880.00,96.89
1879.00,96.89
1878.00,96.89
1877.00,96.88
1876.00,96.88
1875.00,96.88
1874.00,96.87
1873.00,96.87
1872.00,96.87
1871.00,96.86
1870.00,96.85
1869.00,96.83
1868.00,96.82
1867.00,96.81
1866.00,96.80
1865.00,96.80
1864.00,96.81
1863.00,96.82
1862.00,96.84
1861.00,96.86
1860.00,96.87
1859.00,96.88
1858.00,96.89
1857.00,96.91
1856.00,96.92
1855.00,96.93
1854.00,96.95
1853.00,96.97
1852.00,96.99
1851.00,97.00
1850.00,97.01
1849.00,97.01
1848.00,97.01
1847.00,97.00
1846.00,96.99
1845.00,96.98
1844.00,96.97
1843.00,96.97
1842.00,96.98
1841.00,96.99
1840.00,97.01
1839.00,97.03
1838.00,97.05
1837.00,97.07
1836.00,97.09
1835.00,97.10
1834.00,97.10
1833.00,97.10
1832.00,97.11
1831.00,97.11
1830.00,97.12
1829.00,97.13
1828.00,97.15
1827.00,97.16
1826.00,97.17
1825.00,97.18
1824.00,97.19
1823.00,97.19
1822.00,97.19
1821.00,97.20
1820.00,97.20
1819.00,97.21
1818.00,97.21
1817.00,97.21
1816.00,97.21
1815.00,97.21
1814.00,97.21
1813.00,97.20
1812.00,97.20
1811.00,97.20
1810.00,97.21
1809.00,97.22
1808.00,97.22
1807.00,97.23
1806.00,97.24
1805.00,97.24
1804.00,97.24
1803.00,97.24
1802.00,97.23
1801.00,97.23
1800.00,97.22
1799.00,97.22
1798.00,97.22
1797.00,97.22
1796.00,97.23
1795.00,97.23
1794.00,97.24
1793.00,97.25
1792.00,97.25
1791.00,97.25
1790.00,97.25
1789.00,97.25
1788.00,97.25
1787.00,97.25
1786.00,97.25
1785.00,97.25
1784.00,97.25
1783.00,97.26
1782.00,97.26
1781.00,97.26
1780.00,97.26
1779.00,97.27
1778.00,97.27
1777.00,97.26
1776.00,97.26
1775.00,97.26
1774.00,97.26
1773.00,97.25
1772.00,97.25
1771.00,97.24
1770.00,97.24
1769.00,97.23
1768.00,97.23
1767.00,97.23
1766.00,97.22
1765.00,97.22
1764.00,97.21
1763.00,97.21
1762.00,97.20
1761.00,97.20
1760.00,97.20
1759.00,97.19
1758.00,97.19
1757.00,97.19
1756.00,97.19
1755.00,97.19
1754.00,97.18
1753.00,97.18
1752.00,97.17
1751.00,97.16
1750.00,97.15
1749.00,97.15
1748.00,97.14
1747.00,97.13
1746.00,97.12
1745.00,97.11
1744.00,97.11
1743.00,97.10
1742.00,97.10
1741.00,97.09
1740.00,97.09
1739.00,97.09
1738.00,97.09
1737.00,97.09
1736.00,97.09
1735.00,97.09
1734.00,97.09
1733.00,97.08
1732.00,97.08
1731.00,97.07
1730.00,97.06
1729.00,97.05
1728.00,97.04
1727.00,97.03
1726.00,97.02
1725.00,97.01
1724.00,97.00
1723.00,97.00
1722.00,96.99
1721.00,96.99
1720.00,96.98
1719.00,96.98
1718.00,96.98
1717.00,96.98
1716.00,96.97
1715.00,96.96
1714.00,96.95
1713.00,96.94
1712.00,96.93
1711.00,96.91
1710.00,96.90
1709.00,96.89
1708.00,96.88
1707.00,96.87
1706.00,96.86
1705.00,96.86
1704.00,96.85
1703.00,96.84
1702.00,96.83
1701.00,96.82
1700.00,96.81
1699.00,96.81
1698.00,96.80
1697.00,96.79
1696.00,96.79
1695.00,96.79
1694.00,96.78
1693.00,96.78
1692.00,96.78
1691.00,96.77
1690.00,96.77
1689.00,96.76
1688.00,96.75
1687.00,96.74
1686.00,96.73
1685.00,96.71
1684.00,96.69
1683.00,96.68
1682.00,96.66
1681.00,96.65
1680.00,96.63
1679.00,96.62
1678.00,96.61
1677.00,96.60
1676.00,96.60
1675.00,96.59
1674.00,96.59
1673.00,96.58
1672.00,96.58
1671.00,96.57
1670.00,96.56
1669.00,96.55
1668.00,96.53
1667.00,96.52
1666.00,96.50
1665.00,96.49
1664.00,96.48
1663.00,96.47
1662.00,96.46
1661.00,96.45
1660.00,96.44
1659.00,96.43
1658.00,96.42
1657.00,96.40
1656.00,96.39
1655.00,96.38
1654.00,96.37
1653.00,96.36
1652.00,96.35
1651.00,96.34
1650.00,96.33
1649.00,96.32
1648.00,96.31
1647.00,96.29
1646.00,96.28
1645.00,96.26
1644.00,96.25
1643.00,96.23
1642.00,96.22
1641.00,96.20
1640.00,96.18
1639.00,96.17
1638.00,96.15
1637.00,96.14
1636.00,96.12
1635.00,96.11
1634.00,96.10
1633.00,96.09
1632.00,96.08
1631.00,96.07
1630.00,96.06
1629.00,96.04
1628.00,96.02
1627.00,96.01
1626.00,95.99
1625.00,95.98
1624.00,95.97
1623.00,95.96
1622.00,95.96
1621.00,95.96
1620.00,95.96
1619.00,95.97
1618.00,95.97
1617.00,95.97
1616.00,95.98
1615.00,95.98
1614.00,95.98
1613.00,95.98
1612.00,95.99
1611.00,95.99
1610.00,96.00
1609.00,96.01
1608.00,96.03
1607.00,96.04
1606.00,96.06
1605.00,96.07
1604.00,96.08
1603.00,96.09
1602.00,96.09
1601.00,96.09
1600.00,96.09
1599.00,96.09
1598.00,96.09
1597.00,96.09
1596.00,96.09
1595.00,96.10
1594.00,96.11
1593.00,96.11
1592.00,96.12
1591.00,96.13
1590.00,96.14
1589.00,96.15
1588.00,96.16
1587.00,96.17
1586.00,96.18
1585.00,96.19
1584.00,96.20
1583.00,96.20
1582.00,96.20
1581.00,96.20
1580.00,96.20
1579.00,96.19
1578.00,96.19
1577.00,96.19
1576.00,96.19
1575.00,96.19
1574.00,96.20
1573.00,96.20
1572.00,96.21
1571.00,96.21
1570.00,96.22
1569.00,96.23
1568.00,96.23
1567.00,96.24
1566.00,96.25
1565.00,96.25
1564.00,96.25
1563.00,96.25
1562.00,96.25
1561.00,96.25
1560.00,96.24
1559.00,96.24
1558.00,96.24
1557.00,96.25
1556.00,96.25
1555.00,96.25
1554.00,96.26
1553.00,96.26
1552.00,96.26
1551.00,96.26
1550.00,96.26
1549.00,96.25
1548.00,96.25
1547.00,96.25
1546.00,96.25
1545.00,96.25
1544.00,96.26
1543.00,96.26
1542.00,96.27
1541.00,96.28
1540.00,96.29
1539.00,96.29
1538.00,96.30
1537.00,96.30
1536.00,96.31
1535.00,96.31
1534.00,96.30
1533.00,96.30
1532.00,96.29
1531.00,96.29
1530.00,96.29
1529.00,96.29
1528.00,96.29
1527.00,96.30
1526.00,96.30
1525.00,96.30
1524.00,96.30
1523.00,96.31
1522.00,96.31
1521.00,96.31
1520.00,96.31
1519.00,96.32
1518.00,96.32
1517.00,96.32
1516.00,96.32
1515.00,96.31
1514.00,96.31
1513.00,96.31
1512.00,96.31
1511.00,96.31
1510.00,96.30
1509.00,96.30
1508.00,96.30
1507.00,96.30
1506.00,96.30
1505.00,96.29
1504.00,96.29
1503.00,96.28
1502.00,96.28
1501.00,96.28
1500.00,96.27
1499.00,96.28
1498.00,96.28
1497.00,96.29
1496.00,96.29
1495.00,96.30
1494.00,96.31
1493.00,96.31
1492.00,96.31
1491.00,96.31
1490.00,96.31
1489.00,96.30
1488.00,96.30
1487.00,96.29
1486.00,96.29
1485.00,96.29
1484.00,96.28
1483.00,96.28
1482.00,96.28
1481.00,96.28
1480.00,96.29
1479.00,96.29
1478.00,96.29
1477.00,96.29
1476.00,96.29
1475.00,96.29
1474.00,96.30
1473.00,96.30
1472.00,96.30
1471.00,96.30
1470.00,96.31
1469.00,96.31
1468.00,96.31
1467.00,96.32
1466.00,96.31
1465.00,96.31
1464.00,96.31
1463.00,96.30
1462.00,96.30
1461.00,96.29
1460.00,96.29
1459.00,96.28
1458.00,96.28
1457.00,96.27
1456.00,96.27
1455.00,96.27
1454.00,96.27
1453.00,96.27
1452.00,96.27
1451.00,96.27
1450.00,96.27
1449.00,96.27
1448.00,96.27
1447.00,96.27
1446.00,96.27
1445.00,96.26
1444.00,96.26
1443.00,96.26
1442.00,96.26
1441.00,96.27
1440.00,96.27
1439.00,96.27
1438.00,96.28
1437.00,96.28
1436.00,96.28
1435.00,96.28
1434.00,96.27
1433.00,96.27
1432.00,96.26
1431.00,96.25
1430.00,96.25
1429.00,96.24
1428.00,96.24
1427.00,96.24
1426.00,96.24
1425.00,96.24
1424.00,96.24
1423.00,96.24
1422.00,96.24
1421.00,96.23
1420.00,96.23
1419.00,96.22
1418.00,96.22
1417.00,96.21
1416.00,96.21
1415.00,96.21
1414.00,96.21
1413.00,96.22
1412.00,96.22
1411.00,96.23
1410.00,96.23
1409.00,96.23
1408.00,96.23
1407.00,96.23
1406.00,96.23
1405.00,96.22
1404.00,96.22
1403.00,96.21
1402.00,96.21
1401.00,96.20
1400.00,96.20
1399.00,96.20
1398.00,96.20
1397.00,96.20
1396.00,96.20
1395.00,96.20
1394.00,96.19
1393.00,96.19
1392.00,96.18
1391.00,96.17
1390.00,96.16
1389.00,96.15
1388.00,96.15
1387.00,96.14
1386.00,96.14
1385.00,96.13
1384.00,96.13
1383.00,96.13
1382.00,96.12
1381.00,96.12
1380.00,96.11
1379.00,96.11
1378.00,96.11
1377.00,96.10
1376.00,96.10
1375.00,96.10
1374.00,96.09
1373.00,96.09
1372.00,96.09
1371.00,96.08
1370.00,96.08
1369.00,96.07
1368.00,96.07
1367.00,96.06
1366.00,96.06
1365.00,96.05
1364.00,96.05
1363.00,96.05
1362.00,96.04
1361.00,96.04
1360.00,96.04
1359.00,96.03
1358.00,96.03
1357.00,96.03
1356.00,96.02
1355.00,96.02
1354.00,96.01
1353.00,96.01
1352.00,96.00
1351.00,95.99
1350.00,95.98
1349.00,95.97
1348.00,95.96
1347.00,95.95
1346.00,95.94
1345.00,95.94
1344.00,95.93
1343.00,95.92
1342.00,95.91
1341.00,95.90
1340.00,95.89
1339.00,95.88
1338.00,95.87
1337.00,95.87
1336.00,95.86
1335.00,95.86
1334.00,95.86
1333.00,95.85
1332.00,95.85
1331.00,95.84
1330.00,95.83
1329.00,95.81
1328.00,95.80
1327.00,95.78
1326.00,95.76
1325.00,95.74
1324.00,95.72
1323.00,95.71
1322.00,95.69
1321.00,95.67
1320.00,95.65
1319.00,95.63
1318.00,95.61
1317.00,95.58
1316.00,95.56
1315.00,95.53
1314.00,95.51
1313.00,95.49
1312.00,95.47
1311.00,95.44
1310.00,95.42
1309.00,95.39
1308.00,95.36
1307.00,95.33
1306.00,95.30
1305.00,95.26
1304.00,95.23
1303.00,95.19
1302.00,95.15
1301.00,95.11
1300.00,95.07
1299.00,95.02
1298.00,94.98
1297.00,94.93
1296.00,94.88
1295.00,94.83
1294.00,94.78
1293.00,94.72
1292.00,94.66
1291.00,94.60
1290.00,94.54
1289.00,94.48
1288.00,94.41
1287.00,94.33
1286.00,94.26
1285.00,94.17
1284.00,94.09
1283.00,93.99
1282.00,93.90
1281.00,93.79
1280.00,93.68
1279.00,93.57
1278.00,93.45
1277.00,93.32
1276.00,93.19
1275.00,93.05
1274.00,92.90
1273.00,92.73
1272.00,92.56
1271.00,92.38
1270.00,92.18
1269.00,91.97
1268.00,91.75
1267.00,91.51
1266.00,91.26
1265.00,91.00
1264.00,90.73
1263.00,90.45
1262.00,90.15
1261.00,89.85
1260.00,89.54
1259.00,89.22
1258.00,88.90
1257.00,88.57
1256.00,88.24
1255.00,87.90
1254.00,87.55
1253.00,87.20
1252.00,86.85
1251.00,86.50
1250.00,86.15
1249.00,85.79
1248.00,85.44
1247.00,85.09
1246.00,84.74
1245.00,84.39
1244.00,84.03
1243.00,83.68
1242.00,83.32
1241.00,82.97
1240.00,82.61
1239.00,82.25
1238.00,81.90
1237.00,81.54
1236.00,81.19
1235.00,80.84
1234.00,80.49
1233.00,80.14
1232.00,79.79
1231.00,79.44
1230.00,79.09
1229.00,78.74
1228.00,78.39
1227.00,78.04
1226.00,77.70
1225.00,77.36
1224.00,77.03
1223.00,76.70
1222.00,76.37
1221.00,76.05
1220.00,75.74
1219.00,75.42
1218.00,75.12
1217.00,74.81
1216.00,74.51
1215.00,74.21
1214.00,73.91
1213.00,73.62
1212.00,73.33
1211.00,73.04
1210.00,72.76
1209.00,72.48
1208.00,72.21
1207.00,71.95
1206.00,71.69
1205.00,71.44
1204.00,71.18
1203.00,70.93
1202.00,70.68
1201.00,70.44
1200.00,70.20
1199.00,69.96
1198.00,69.73
1197.00,69.50
1196.00,69.27
1195.00,69.05
1194.00,68.82
1193.00,68.60
1192.00,68.38
1191.00,68.16
1190.00,67.94
1189.00,67.72
1188.00,67.51
1187.00,67.29
1186.00,67.08
1185.00,66.86
1184.00,66.65
1183.00,66.43
1182.00,66.22
1181.00,66.01
1180.00,65.79
1179.00,65.58
1178.00,65.37
1177.00,65.16
1176.00,64.96
1175.00,64.75
1174.00,64.54
1173.00,64.32
1172.00,64.11
1171.00,63.89
1170.00,63.68
1169.00,63.46
1168.00,63.24
1167.00,63.03
1166.00,62.81
1165.00,62.59
1164.00,62.37
1163.00,62.16
1162.00,61.94
1161.00,61.71
1160.00,61.49
1159.00,61.25
1158.00,61.02
1157.00,60.78
1156.00,60.53
1155.00,60.27
1154.00,60.01
1153.00,59.73
1152.00,59.46
1151.00,59.17
1150.00,58.88
1149.00,58.58
1148.00,58.27
1147.00,57.96
1146.00,57.63
1145.00,57.28
1144.00,56.92
1143.00,56.54
1142.00,56.14
1141.00,55.71
1140.00,55.27
1139.00,54.80
1138.00,54.31
1137.00,53.79
1136.00,53.25
1135.00,52.68
1134.00,52.07
1133.00,51.44
1132.00,50.78
1131.00,50.08
1130.00,49.35
1129.00,48.59
1128.00,47.79
1127.00,46.96
1126.00,46.09
1125.00,45.20
1124.00,44.28
1123.00,43.33
1122.00,42.37
1121.00,41.39
1120.00,40.40
1119.00,39.40
1118.00,38.40
1117.00,37.41
1116.00,36.43
1115.00,35.46
1114.00,34.52
1113.00,33.59
1112.00,32.70
1111.00,31.84
1110.00,31.01
1109.00,30.21
1108.00,29.46
1107.00,28.73
1106.00,28.04
1105.00,27.38
1104.00,26.74
1103.00,26.14
1102.00,25.57
1101.00,25.02
1100.00,24.49
1099.00,23.99
1098.00,23.51
1097.00,23.05
1096.00,22.61
1095.00,22.19
1094.00,21.79
1093.00,21.40
1092.00,21.03
1091.00,20.67
1090.00,20.32
1089.00,19.98
1088.00,19.65
1087.00,19.33
1086.00,19.02
1085.00,18.71
1084.00,18.42
1083.00,18.13
1082.00,17.85
1081.00,17.58
1080.00,17.32
1079.00,17.06
1078.00,16.81
1077.00,16.58
1076.00,16.35
1075.00,16.12
1074.00,15.91
1073.00,15.70
1072.00,15.50
1071.00,15.30
1070.00,15.11
1069.00,14.92
1068.00,14.73
1067.00,14.54
1066.00,14.36
1065.00,14.19
1064.00,14.02
1063.00,13.86
1062.00,13.70
1061.00,13.54
1060.00,13.39
1059.00,13.24
1058.00,13.10
1057.00,12.96
1056.00,12.82
1055.00,12.69
1054.00,12.55
1053.00,12.43
1052.00,12.30
1051.00,12.18
1050.00,12.07
1049.00,11.96
1048.00,11.86
1047.00,11.77
1046.00,11.69
1045.00,11.61
1044.00,11.55
1043.00,11.48
1042.00,11.43
1041.00,11.37
1040.00,11.33
1039.00,11.29
1038.00,11.26
1037.00,11.24
1036.00,11.22
1035.00,11.22
1034.00,11.24
1033.00,11.27
1032.00,11.31
1031.00,11.37
1030.00,11.44
1029.00,11.53
1028.00,11.64
1027.00,11.77
1026.00,11.92
1025.00,12.09
1024.00,12.29
1023.00,12.51
1022.00,12.75
1021.00,13.02
1020.00,13.32
1019.00,13.66
1018.00,14.02
1017.00,14.43
1016.00,14.87
1015.00,15.35
1014.00,15.87
1013.00,16.44
1012.00,17.04
1011.00,17.68
1010.00,18.37
1009.00,19.10
1008.00,19.87
1007.00,20.69
1006.00,21.54
1005.00,22.43
1004.00,23.36
1003.00,24.33
1002.00,25.33
1001.00,26.36
1000.00,27.42
999.00,28.50
998.00,29.60
997.00,30.71
996.00,31.84
995.00,32.98
994.00,34.12
993.00,35.26
992.00,36.39
991.00,37.52
990.00,38.63
989.00,39.72
988.00,40.78
987.00,41.83
986.00,42.85
985.00,43.85
984.00,44.83
983.00,45.78
982.00,46.71
981.00,47.63
980.00,48.52
979.00,49.39
978.00,50.24
977.00,51.08
976.00,51.91
975.00,52.73
974.00,53.54
973.00,54.34
972.00,55.13
971.00,55.91
970.00,56.68
969.00,57.44
968.00,58.18
967.00,58.90
966.00,59.61
965.00,60.30
964.00,60.97
963.00,61.63
962.00,62.27
961.00,62.89
960.00,63.50
959.00,64.10
958.00,64.68
957.00,65.25
956.00,65.82
955.00,66.37
954.00,66.91
953.00,67.44
952.00,67.96
951.00,68.47
950.00,68.97
949.00,69.46
948.00,69.94
947.00,70.41
946.00,70.88
945.00,71.33
944.00,71.77
943.00,72.20
942.00,72.62
941.00,73.02
940.00,73.42
939.00,73.81
938.00,74.20
937.00,74.57
936.00,74.95
935.00,75.31
934.00,75.67
933.00,76.02
932.00,76.36
931.00,76.68
930.00,77.00
929.00,77.31
928.00,77.60
927.00,77.89
926.00,78.18
925.00,78.46
924.00,78.73
923.00,79.00
922.00,79.27
921.00,79.53
920.00,79.79
919.00,80.04
918.00,80.27
917.00,80.50
916.00,80.72
915.00,80.93
914.00,81.13
913.00,81.33
912.00,81.53
911.00,81.73
910.00,81.93
909.00,82.12
908.00,82.30
907.00,82.48
906.00,82.65
905.00,82.82
904.00,82.97
903.00,83.13
902.00,83.27
901.00,83.42
900.00,83.56
899.00,83.70
898.00,83.83
897.00,83.97
896.00,84.10
895.00,84.23
894.00,84.36
893.00,84.48
892.00,84.59
891.00,84.70
890.00,84.81
889.00,84.90
888.00,84.99
887.00,85.07
886.00,85.14
885.00,85.20
884.00,85.25
883.00,85.30
882.00,85.34
881.00,85.38
880.00,85.41
879.00,85.44
878.00,85.46
877.00,85.48
876.00,85.49
875.00,85.48
874.00,85.45
873.00,85.40
872.00,85.33
871.00,85.23
870.00,85.12
869.00,84.97
868.00,84.81
867.00,84.61
866.00,84.39
865.00,84.14
864.00,83.86
863.00,83.55
862.00,83.22
861.00,82.87
860.00,82.49
859.00,82.09
858.00,81.67
857.00,81.22
856.00,80.75
855.00,80.26
854.00,79.76
853.00,79.24
852.00,78.72
851.00,78.18
850.00,77.64
849.00,77.09
848.00,76.54
847.00,75.98
846.00,75.41
845.00,74.85
844.00,74.29
843.00,73.72
842.00,73.16
841.00,72.59
840.00,72.04
839.00,71.48
838.00,70.93
837.00,70.39
836.00,69.85
835.00,69.32
834.00,68.79
833.00,68.27
832.00,67.75
831.00,67.23
830.00,66.70
829.00,66.18
828.00,65.65
827.00,65.12
826.00,64.59
825.00,64.06
824.00,63.54
823.00,63.04
822.00,62.55
821.00,62.07
820.00,61.62
819.00,61.17
818.00,60.75
817.00,60.33
816.00,59.93
815.00,59.54
814.00,59.17
813.00,58.82
812.00,58.49
811.00,58.18
810.00,57.89
809.00,57.62
808.00,57.37
807.00,57.13
806.00,56.91
805.00,56.71
804.00,56.54
803.00,56.39
802.00,56.27
801.00,56.17
800.00,56.11
799.00,56.07
798.00,56.06
797.00,56.09
796.00,56.14
795.00,56.22
794.00,56.34
793.00,56.49
792.00,56.68
791.00,56.92
790.00,57.20
789.00,57.52
788.00,57.88
787.00,58.29
786.00,58.75
785.00,59.25
784.00,59.79
783.00,60.38
782.00,61.03
781.00,61.72
780.00,62.47
779.00,63.27
778.00,64.12
777.00,65.02
776.00,65.96
775.00,66.91
774.00,67.88
773.00,68.83
772.00,69.76
771.00,70.65
770.00,71.50
769.00,72.28
768.00,73.01
767.00,73.66
766.00,74.25
765.00,74.77
764.00,75.22
763.00,75.62
762.00,75.96
761.00,76.26
760.00,76.52
759.00,76.75
758.00,76.95
757.00,77.13
756.00,77.29
755.00,77.44
754.00,77.57
753.00,77.69
752.00,77.81
751.00,77.92
750.00,78.04
749.00,78.16
748.00,78.28
747.00,78.40
746.00,78.52
745.00,78.64
744.00,78.76
743.00,78.88
742.00,78.99
741.00,79.10
740.00,79.21
739.00,79.31
738.00,79.42
737.00,79.52
736.00,79.61
735.00,79.71
734.00,79.80
733.00,79.89
732.00,79.98
731.00,80.06
730.00,80.15
729.00,80.23
728.00,80.31
727.00,80.39
726.00,80.47
725.00,80.55
724.00,80.62
723.00,80.69
722.00,80.76
721.00,80.83
720.00,80.89
719.00,80.96
718.00,81.03
717.00,81.09
716.00,81.15
715.00,81.21
714.00,81.26
713.00,81.32
712.00,81.37
711.00,81.43
710.00,81.48
709.00,81.52
708.00,81.56
707.00,81.60
706.00,81.63
705.00,81.66
704.00,81.70
703.00,81.73
702.00,81.77
701.00,81.80
700.00,81.84
699.00,81.87
698.00,81.90
697.00,81.92
696.00,81.94
695.00,81.95
694.00,81.97
693.00,81.97
692.00,81.98
691.00,82.00
690.00,82.01
689.00,82.03
688.00,82.04
687.00,82.06
686.00,82.07
685.00,82.08
684.00,82.08
683.00,82.08
682.00,82.08
681.00,82.08
680.00,82.08
679.00,82.08
678.00,82.08
677.00,82.08
676.00,82.08
675.00,82.08
674.00,82.08
673.00,82.07
672.00,82.06
671.00,82.04
670.00,82.02
669.00,82.00
668.00,81.98
667.00,81.95
666.00,81.93
665.00,81.90
664.00,81.88
663.00,81.86
662.00,81.84
661.00,81.82
660.00,81.80
659.00,81.78
658.00,81.75
657.00,81.72
656.00,81.68
655.00,81.65
654.00,81.61
653.00,81.56
652.00,81.52
651.00,81.48
650.00,81.44
649.00,81.40
648.00,81.37
647.00,81.34
646.00,81.31
645.00,81.27
644.00,81.24
643.00,81.20
642.00,81.16
641.00,81.12
640.00,81.07
639.00,81.02
638.00,80.96
637.00,80.90
636.00,80.82
635.00,80.74
634.00,80.65
633.00,80.55
632.00,80.46
631.00,80.37
630.00,80.28
629.00,80.20
628.00,80.12
627.00,80.05
626.00,79.96
625.00,79.88
624.00,79.79
623.00,79.71
622.00,79.63
621.00,79.55
620.00,79.47
619.00,79.37
618.00,79.27
617.00,79.15
616.00,79.02
615.00,78.90
614.00,78.77
613.00,78.66
612.00,78.55
611.00,78.44
610.00,78.33
609.00,78.21
608.00,78.10
607.00,77.99
606.00,77.91
605.00,77.84
604.00,77.78
603.00,77.74
602.00,77.69
601.00,77.62
600.00,77.53
599.00,77.40
598.00,77.24
597.00,77.07
596.00,76.89
595.00,76.74
594.00,76.62
593.00,76.55
592.00,76.54
591.00,76.56
590.00,76.61
589.00,76.66
588.00,76.68
587.00,76.65
586.00,76.56
585.00,76.41
584.00,76.21
583.00,75.97
582.00,75.71
581.00,75.47
580.00,75.25
579.00,75.07
578.00,74.94
577.00,74.86
576.00,74.82
575.00,74.82
574.00,74.85
573.00,74.89
572.00,74.95
571.00,75.00
570.00,75.04
569.00,75.05
568.00,75.01
567.00,74.94
566.00,74.82
565.00,74.67
564.00,74.48
563.00,74.29
562.00,74.10
561.00,73.93
560.00,73.79
559.00,73.68
558.00,73.61
557.00,73.56
556.00,73.52
555.00,73.49
554.00,73.45
553.00,73.40
552.00,73.32
551.00,73.21
550.00,73.08
